0.000000000000000000e+00
0.000000000000000000e+00
0.000000000000000000e+00
0.000000000000000000e+00
0.000000000000000000e+00
0.000000000000000000e+00
0.000000000000000000e+00
0.000000000000000000e+00
0.000000000000000000e+00
0.000000000000000000e+00
0.000000000000000000e+00
0.000000000000000000e+00
0.000000000000000000e+00
0.000000000000000000e+00
0.000000000000000000e+00
0.000000000000000000e+00
0.000000000000000000e+00
0.000000000000000000e+00
0.000000000000000000e+00
0.000000000000000000e+00
0.000000000000000000e+00
0.000000000000000000e+00
0.000000000000000000e+00
0.000000000000000000e+00
0.000000000000000000e+00
0.000000000000000000e+00
0.000000000000000000e+00
0.000000000000000000e+00
0.000000000000000000e+00
0.000000000000000000e+00
0.000000000000000000e+00
0.000000000000000000e+00
0.000000000000000000e+00
0.000000000000000000e+00
0.000000000000000000e+00
0.000000000000000000e+00
0.000000000000000000e+00
0.000000000000000000e+00
0.000000000000000000e+00
0.000000000000000000e+00
0.000000000000000000e+00
0.000000000000000000e+00
0.000000000000000000e+00
0.000000000000000000e+00
0.000000000000000000e+00
0.000000000000000000e+00
0.000000000000000000e+00
0.000000000000000000e+00
0.000000000000000000e+00
0.000000000000000000e+00
0.000000000000000000e+00
0.000000000000000000e+00
0.000000000000000000e+00
0.000000000000000000e+00
0.000000000000000000e+00
0.000000000000000000e+00
0.000000000000000000e+00
0.000000000000000000e+00
0.000000000000000000e+00
0.000000000000000000e+00
0.000000000000000000e+00
0.000000000000000000e+00
0.000000000000000000e+00
0.000000000000000000e+00
0.000000000000000000e+00
0.000000000000000000e+00
0.000000000000000000e+00
0.000000000000000000e+00
0.000000000000000000e+00
0.000000000000000000e+00
0.000000000000000000e+00
0.000000000000000000e+00
0.000000000000000000e+00
0.000000000000000000e+00
0.000000000000000000e+00
0.000000000000000000e+00
0.000000000000000000e+00
0.000000000000000000e+00
0.000000000000000000e+00
0.000000000000000000e+00
0.000000000000000000e+00
0.000000000000000000e+00
0.000000000000000000e+00
0.000000000000000000e+00
0.000000000000000000e+00
0.000000000000000000e+00
0.000000000000000000e+00
0.000000000000000000e+00
0.000000000000000000e+00
0.000000000000000000e+00
0.000000000000000000e+00
0.000000000000000000e+00
2.475267482814378639e-01
6.598246974861830816e-02
4.581088324497168546e-02
-4.294409737107342945e-02
-1.881795201973290865e-01
1.353634483913709885e-02
-1.066955896523884284e-02
1.708747195675807129e-01
3.806592192055055501e-01
3.241787769952950149e-01
7.001678704934763409e-02
3.370793134278371461e-02
-2.002824720995170504e-01
-5.593367118644269054e-01
-4.584787793461937433e-01
-2.285226932046223181e-01
1.063256427559115397e-01
2.757669693865431593e-01
2.394581136799792120e-01
8.615405625226492392e-02
1.022913254551822138e-01
2.354237963792499000e-01
1.386001811617461332e-01
2.563929674132506970e-02
-1.478363471900358550e-01
-2.648315489111862098e-01
-2.688658662119155496e-01
-2.930717700162914774e-01
-4.019983371359832636e-01
-4.867190004512990109e-01
-4.019983371359832636e-01
-1.478363471900358550e-01
-6.311568387472005215e-02
-7.925295307763734198e-02
1.022913254551822138e-01
9.422269085372357578e-02
2.563929674132506970e-02
-1.438020298893065152e-01
-6.311568387472005215e-02
2.434924309807085518e-01
2.152522098756032842e-01
3.927621711076935140e-01
4.452082960171747095e-01
2.434924309807085518e-01
2.394581136799792120e-01
4.581088324497168546e-02
-4.294409737107342945e-02
-9.942453958128395775e-02
-9.942453958128395775e-02
1.587717676653927490e-01
8.615405625226492392e-02
8.211973895153559799e-02
-4.294409737107342945e-02
-1.680079336936824708e-01
-7.118431847617870400e-02
-5.504704927326140029e-02
3.241787769952950149e-01
6.106153053470769754e-01
3.685562673033175862e-01
1.628060849661220610e-01
2.031492579734153203e-01
2.563929674132506970e-02
1.547374503646634369e-01
7.405110435007696001e-02
-1.316990779871185513e-01
-1.155618087842012615e-01
-6.311568387472005215e-02
1.224629119588288434e-01
1.757066213986642131e-02
-8.328727037836666791e-02
-1.195961260849305874e-01
-1.316990779871185513e-01
-1.438020298893065152e-01
-3.890978007034411046e-02
-1.115274914834719355e-01
-2.083511067009757023e-01
-9.135590497982531977e-02
-8.732158767909599384e-02
-1.276647606863892392e-01
-7.925295307763734198e-02
-5.504704927326140029e-02
-5.504704927326140029e-02
5.791383514715965630e-02
2.160497944059574724e-02
8.211973895153559799e-02
-5.908136657399072622e-02
-1.034588568820132837e-01
-2.680682816815613961e-02
-1.599392990922238189e-01
0.000000000000000000e+00
0.000000000000000000e+00
0.000000000000000000e+00
0.000000000000000000e+00
0.000000000000000000e+00
0.000000000000000000e+00
0.000000000000000000e+00
0.000000000000000000e+00
0.000000000000000000e+00
0.000000000000000000e+00
0.000000000000000000e+00
0.000000000000000000e+00
3.322474115967536390e-01
2.160497944059574724e-02
2.394581136799792120e-01
7.074389205645807976e-01
5.823750842419717078e-01
-1.034588568820132837e-01
-2.850031354148328533e-01
-4.625130966469230831e-01
-7.489496249987050991e-01
-8.094643845096449741e-01
-6.884348654877652240e-01
-2.607972316104569255e-01
-2.325570105053516301e-01
-2.930717700162914774e-01
-2.850031354148328533e-01
-2.809688181141035135e-01
-2.285226932046223181e-01
-1.276647606863892392e-01
4.177656594424236647e-02
5.743064496405131392e-01
5.622034977383251197e-01
-2.600924363780196188e-03
3.370793134278371461e-02
2.999728731909190871e-01
5.904437188434303874e-01
5.137916901295732641e-01
4.532769306186333891e-01
7.881252665791672607e-01
7.639193627747913329e-01
1.010012718119279951e+00
8.607429779922950441e-01
3.322474115967536390e-01
3.846935365062348899e-01
7.639193627747913329e-01
1.195591313952828916e+00
6.630614302565581708e-01
-6.238857886760960092e-01
-2.217441122464179237e+00
-3.181642957338487676e+00
-2.261818612772201753e+00
-1.628430796557697624e+00
-1.003111614944652397e+00
-3.858610679330659599e-01
-8.328727037836666791e-02
3.604876327018589066e-01
7.558507281733326533e-01
7.477820935718739737e-01
6.469241610536409226e-01
1.308552198373249986e+00
1.332758102177626025e+00
9.777381797134454544e-01
3.362817288974829788e-01
-6.238857886760960092e-01
-1.103969547462885448e+00
-1.442852200724148659e+00
-1.511435594836547214e+00
-1.152381355071637525e+00
-7.045721346906824722e-01
1.386001811617461332e-01
1.187522679351370236e+00
1.945974331888483233e+00
2.732666205530700942e+00
2.470435580983294965e+00
1.348895371380543162e+00
-1.639736163929531310e-01
-9.708370765388179002e-01
-9.546998073359005410e-01
-1.148347037770908186e+00
-1.136244085868720166e+00
-9.385625381329832928e-01
9.502027538407774657e-03
9.494979586083401868e-01
1.716018245746911752e+00
1.845116399370249960e+00
9.575665932097988664e-01
1.022913254551822138e-01
-1.003111614944652397e+00
-2.423191304801374457e+00
-2.983961409602750692e+00
-2.580529679529818043e+00
-1.918901642210208980e+00
-7.650868942016223473e-01
1.022913254551822138e-01
7.719879973762499015e-01
1.304517881072520646e+00
1.336792419478355143e+00
1.417478765492941717e+00
1.683743707341077034e+00
1.433616034695859076e+00
1.042287256525114669e+00
1.433616034695859076e+00
1.417478765492941717e+00
-1.841452028965997467e-01
-2.088342968840840808e+00
-3.318809745563284341e+00
-3.484216754893186607e+00
-2.112548872645216846e+00
-8.861164132235020974e-01
8.203998049850018681e-01
2.127518610421302636e+00
2.470435580983294965e+00
3.979270251456061835e+00
5.326732229899656446e+00
3.749314165314490577e+00
1.324689467576167345e+00
2.071835752741446324e-01
-1.684911238767908159e+00
-2.265852930072930871e+00
-1.918901642210208980e+00
-2.403019718297727980e+00
-2.374779497192622824e+00
-1.999587988224795332e+00
-1.717185777173742656e+00
-1.705082825271554858e+00
-1.265342239492058596e+00
-7.328123557957877399e-01
-4.504101447447351192e-01
-1.720422509944117828e-01
-3.084114546888546207e-02
9.422269085372357578e-02
2.160497944059574724e-02
1.870119887704980166e-01
3.806592192055055501e-01
4.936201036259266206e-01
2.838356039880017834e-01
-1.276647606863892392e-01
-5.351308080600508665e-01
-4.504101447447351192e-01
4.984520054570101139e-02
2.757669693865431593e-01
5.743064496405131392e-01
4.895857863251972808e-01
5.218603247310318327e-01
2.394581136799792120e-01
-1.962481547987877384e-01
1.305315465602874814e-01
2.112178925748739444e-01
1.353634483913709885e-02
-2.244883759038930060e-01
2.563929674132506970e-02
2.313894790785205879e-01
2.959385558901897473e-01
3.604876327018589066e-01
2.152522098756032842e-01
4.008308057091521936e-01
2.313894790785205879e-01
1.870119887704980166e-01
3.645219500025882464e-01
3.120758250931070510e-01
2.838356039880017834e-01
2.596297001836258556e-01
1.950806233719566685e-01
-3.084114546888546207e-02
1.433392936949127571e-03
-4.294409737107342945e-02
-2.406256451068102820e-01
-2.809688181141035135e-01
-1.066955896523884284e-02
4.008308057091521936e-01
5.501005458361371003e-01
4.411739787164454252e-01
3.806592192055055501e-01
6.307868918507235634e-01
9.252920548039642590e-01
6.267525745499943346e-01
2.160497944059574724e-02
-8.732158767909599384e-02
4.581088324497168546e-02
1.353634483913709885e-02
-5.504704927326140029e-02
-2.406256451068102820e-01
-2.850031354148328533e-01
-2.809688181141035135e-01
-4.302385582410884757e-01
-5.835426156688028332e-01
-4.302385582410884757e-01
-6.311568387472005215e-02
1.757066213986642131e-02
3.370793134278371461e-02
2.563929674132506970e-02
-3.890978007034411046e-02
-3.487546276961478453e-02
-1.478363471900358550e-01
-2.325570105053516301e-01
-7.118431847617870400e-02
8.615405625226492392e-02
1.547374503646634369e-01
8.211973895153559799e-02
-3.890978007034411046e-02
3.774224864351304054e-02
1.466688157632047851e-01
2.757669693865431593e-01
2.313894790785205879e-01
2.031492579734153203e-01
9.018837355299424985e-02
-1.438020298893065152e-01
-2.930717700162914774e-01
-5.593367118644269054e-01
-4.867190004512990109e-01
-4.221699236396298516e-01
-4.746160485491110470e-01
-3.576208468279606922e-01
-1.397677125885772031e-01
3.370793134278371461e-02
-2.680682816815613961e-02
-1.195961260849305874e-01
-1.115274914834719355e-01
1.353634483913709885e-02
-6.635241664509519514e-03
5.387951784643033731e-02
1.757066213986642131e-02
-2.600924363780196188e-03
-8.732158767909599384e-02
-3.132433565199381209e-01
-1.680079336936824708e-01
-1.195961260849305874e-01
-2.204540586031636662e-01
-2.277251086742681369e-02
1.224629119588288434e-01
-1.155618087842012615e-01
2.160497944059574724e-02
1.587717676653927490e-01
-1.599392990922238189e-01
-3.487546276961478453e-02
1.143942773573701915e-01
1.184285946580995175e-01
9.825700815445290170e-02
2.555953828828965158e-01
2.555953828828965158e-01
2.160497944059574724e-02
5.387951784643033731e-02
-1.074931741827426096e-01
-1.599392990922238189e-01
-1.881795201973290865e-01
-2.890374527155621931e-01
-2.043167894002463902e-01
-2.680682816815613961e-02
4.177656594424236647e-02
1.466688157632047851e-01
2.838356039880017834e-01
1.991149406726859805e-01
1.345658638610168212e-01
1.757066213986642131e-02
-1.316990779871185513e-01
-2.285226932046223181e-01
-3.132433565199381209e-01
-2.365913278060809699e-01
9.825700815445290170e-02
3.685562673033175862e-01
3.483846807996709427e-01
5.864094015427010476e-01
5.339632766332198521e-01
1.789433541690393648e-01
-1.962481547987877384e-01
-5.875769329695321730e-01
-5.512680772629682258e-01
-5.674053464658854740e-01
-5.835426156688028332e-01
-2.850031354148328533e-01
7.405110435007696001e-02
2.878699212887311232e-01
4.411739787164454252e-01
3.846935365062348899e-01
2.596297001836258556e-01
1.184285946580995175e-01
-4.294409737107342945e-02
5.791383514715965630e-02
9.422269085372357578e-02
1.870119887704980166e-01
1.628060849661220610e-01
1.507031330639340971e-01
2.071835752741446324e-01
-1.873819356669749123e-02
-1.236304433856598994e-01
-1.276647606863892392e-01
-1.066955896523884284e-02
1.829776714697687046e-01
2.434924309807085518e-01
2.160497944059574724e-02
-2.688658662119155496e-01
-3.132433565199381209e-01
-2.769345008133742292e-01
-1.438020298893065152e-01
4.581088324497168546e-02
1.507031330639340971e-01
-5.101273197253208130e-02
-5.504704927326140029e-02
-1.962481547987877384e-01
-2.123854240017050143e-01
-1.873819356669749123e-02
5.791383514715965630e-02
4.694141998215506928e-01
3.080415077923777112e-01
9.825700815445290170e-02
1.143942773573701915e-01
3.774224864351304054e-02
-1.066955896523884284e-02
-3.084114546888546207e-02
9.825700815445290170e-02
8.211973895153559799e-02
-3.890978007034411046e-02
-1.397677125885772031e-01
-1.236304433856598994e-01
-7.925295307763734198e-02
-1.074931741827426096e-01
-6.311568387472005215e-02
2.563929674132506970e-02
4.581088324497168546e-02
9.018837355299424985e-02
8.615405625226492392e-02
1.345658638610168212e-01
1.507031330639340971e-01
1.022913254551822138e-01
8.615405625226492392e-02
7.808542165080627206e-02
1.628060849661220610e-01
8.211973895153559799e-02
3.774224864351304054e-02
3.370793134278371461e-02
-3.487546276961478453e-02
-2.325570105053516301e-01
-4.294409737107342945e-02
1.353634483913709885e-02
-7.521863577690801606e-02
3.774224864351304054e-02
-2.680682816815613961e-02
-8.328727037836666791e-02
-1.316990779871185513e-01
2.563929674132506970e-02
1.466688157632047851e-01
4.008308057091521936e-01
5.904437188434303874e-01
4.290710268142574613e-01
1.426344984624754453e-01
-2.688658662119155496e-01
-3.132433565199381209e-01
-3.697237987301486561e-01
-5.270621734585922979e-01
-4.786503658498403868e-01
-4.060326544367125479e-01
9.502027538407774657e-03
9.575665932097988664e-01
1.308552198373249986e+00
6.791986994594755300e-01
1.386001811617461332e-01
-5.512680772629682258e-01
-1.059592057154862932e+00
-1.208861797281848061e+00
-1.354097220108103627e+00
-1.087832278259968311e+00
-7.368466730965170797e-01
-6.521260097812012768e-01
-4.584787793461937433e-01
-3.656894814294193163e-01
-1.236304433856598994e-01
2.394581136799792120e-01
2.596297001836258556e-01
7.316448243689567255e-01
1.155248140945535740e+00
1.195591313952828916e+00
9.938754489163627026e-01
9.817724970141747942e-01
8.930175163981296516e-01
5.541348631368664401e-01
1.991149406726859805e-01
-2.809688181141035135e-01
-4.947876350527576905e-01
-5.512680772629682258e-01
-6.400230578790133684e-01
-3.495522122265020126e-01
-6.715000117544937808e-02
2.967361404205439215e-02
1.022913254551822138e-01
-3.084114546888546207e-02
-1.357333952878478633e-01
-2.769345008133742292e-01
1.708747195675807129e-01
1.647434851634513198e+00
1.954042966489941691e+00
1.046321573825844009e+00
2.273551617777912481e-01
-9.506654900351712012e-01
-1.406543345017584823e+00
-1.789803488586870550e+00
-2.003622305525524894e+00
-1.418646296919772842e+00
-7.368466730965170797e-01
8.211973895153559799e-02
3.080415077923777112e-01
4.411739787164454252e-01
3.564533154011296223e-01
3.967964884084228538e-01
7.405110435007696001e-02
2.031492579734153203e-01
6.630614302565581708e-01
3.846935365062348899e-01
7.518164108726033135e-01
3.806592192055055501e-01
-6.311568387472005215e-02
6.791986994594755300e-01
7.477820935718739737e-01
1.239968804260851432e+00
1.522371015311904108e+00
1.171385410148452877e+00
4.210023922127987817e-01
-3.132433565199381209e-01
8.163654876842725283e-01
7.760223146769792413e-01
-7.570182596001636677e-01
-1.846283930797081085e+00
-2.407054035598457098e+00
-2.326367689583870746e+00
-2.241647026268554832e+00
-1.402509027716855483e+00
-6.037142021724494212e-01
-5.109249042556749387e-01
-6.440573751797427082e-01
-5.875769329695321730e-01
-3.051747219184794968e-01
-2.971060873170208172e-01
-4.665474139476524229e-01
-3.132433565199381209e-01
2.233208444770619361e-01
8.607429779922950441e-01
8.607429779922950441e-01
8.123311703835431885e-01
1.336792419478355143e+00
1.308552198373249986e+00
9.979097662170920424e-01
3.774224864351304054e-02
-5.835426156688028332e-01
-9.990772976439231678e-01
-1.414611979619043503e+00
-7.731555288030810269e-01
6.598246974861830816e-02
1.223831535057934294e+00
1.845116399370249960e+00
1.526405332612633448e+00
8.244341222857310969e-01
2.919042385894604075e-01
-4.907533177520283507e-01
-7.521863577690801606e-02
-2.325570105053516301e-01
-8.336702883140209019e-01
3.362817288974829788e-01
7.276105070682273857e-01
1.522371015311904108e+00
2.914210484063520568e+00
3.587941473285317429e+00
2.422023773374542888e+00
6.106153053470769754e-01
-7.045721346906824722e-01
-2.088342968840840808e+00
-1.789803488586870550e+00
-1.458989469927066018e+00
-9.950429803431938280e-01
-9.546998073359005410e-01
-1.458989469927066018e+00
-1.011180249546111076e+00
-9.062879997271486854e-01
-5.593367118644269054e-01
-3.414835776250433885e-01
9.825700815445290170e-02
4.210023922127987817e-01
3.524189981004002825e-01
3.362817288974829788e-01
-1.276647606863892392e-01
-5.109249042556749387e-01
-7.489496249987050991e-01
-7.489496249987050991e-01
-5.472337599622388860e-01
-4.786503658498403868e-01
-1.760765682951411226e-01
1.547374503646634369e-01
-4.504101447447351192e-01
-1.051523422553404252e+00
-5.391651253607802063e-01
3.201444596945656751e-01
1.413444448192212377e+00
1.417478765492941717e+00
8.203998049850018681e-01
5.460662285354078715e-01
-6.117828367739081008e-01
-1.354097220108103627e+00
-1.398474710416126143e+00
-9.264595862307952734e-01
-2.446599624075396218e-01
6.267525745499943346e-01
1.784601639859310085e+00
1.820910495565874143e+00
1.098767698735325204e+00
8.405713914886484561e-01
7.155075551660393662e-01
5.460662285354078715e-01
-1.841452028965997467e-01
-1.208861797281848061e+00
-1.668773969564990800e+00
-1.543710133242381932e+00
-9.950429803431938280e-01
-4.141012890381712275e-01
3.846935365062348899e-01
7.477820935718739737e-01
6.953359686623927782e-01
1.122973602539701021e+00
1.566748505619926624e+00
1.494130794206798951e+00
1.098767698735325204e+00
4.653798825208213530e-01
-3.616551641286899765e-01
-1.233067701086223877e+00
-1.612293527354780265e+00
-1.471092421829254038e+00
-1.265342239492058596e+00
-6.319544232775546888e-01
-2.325570105053516301e-01
1.870119887704980166e-01
1.001944083517821493e+00
1.530439649913362787e+00
1.300483563771791307e+00
1.122973602539701021e+00
1.377135592485648541e+00
1.038252939224385329e+00
5.541348631368664401e-01
-1.873819356669749123e-02
-2.123854240017050143e-01
-8.732158767909599384e-02
-2.043167894002463902e-01
-1.841452028965997467e-01
-3.898953852337952442e-01
-4.947876350527576905e-01
-4.786503658498403868e-01
-3.656894814294193163e-01
-2.446599624075396218e-01
-1.478363471900358550e-01
-6.635241664509519514e-03
-1.639736163929531310e-01
-1.518706644907651671e-01
-2.365913278060809699e-01
-2.244883759038930060e-01
-1.841452028965997467e-01
-1.195961260849305874e-01
1.063256427559115397e-01
-6.635241664509519514e-03
-8.732158767909599384e-02
8.615405625226492392e-02
-1.599392990922238189e-01
-1.438020298893065152e-01
-1.397677125885772031e-01
-3.334149430235847089e-01
-2.486942797082689338e-01
-3.213119911213967450e-01
-2.446599624075396218e-01
-5.908136657399072622e-02
-4.697841467180275538e-02
-7.118431847617870400e-02
-5.101273197253208130e-02
-2.083511067009757023e-01
-2.648315489111862098e-01
-3.092090392192087811e-01
-2.769345008133742292e-01
-1.066955896523884284e-02
2.313894790785205879e-01
4.411739787164454252e-01
9.422269085372357578e-02
-7.118431847617870400e-02
-9.539022228055464570e-02
-1.760765682951411226e-01
1.466688157632047851e-01
9.825700815445290170e-02
-4.294409737107342945e-02
-9.942453958128395775e-02
-1.720422509944117828e-01
-1.066955896523884284e-02
-5.504704927326140029e-02
-2.277251086742681369e-02
1.950806233719566685e-01
1.789433541690393648e-01
1.224629119588288434e-01
-1.470387626596816703e-02
-3.858610679330659599e-01
-3.697237987301486561e-01
-2.277251086742681369e-02
6.598246974861830816e-02
1.433392936949127571e-03
5.791383514715965630e-02
5.387951784643033731e-02
5.387951784643033731e-02
-4.697841467180275538e-02
-1.357333952878478633e-01
1.386001811617461332e-01
1.063256427559115397e-01
1.224629119588288434e-01
-1.066955896523884284e-02
-5.908136657399072622e-02
1.426344984624754453e-01
4.984520054570101139e-02
2.112178925748739444e-01
1.507031330639340971e-01
-8.732158767909599384e-02
-1.276647606863892392e-01
2.160497944059574724e-02
9.422269085372357578e-02
2.563929674132506970e-02
8.211973895153559799e-02
-3.487546276961478453e-02
-2.204540586031636662e-01
-1.155618087842012615e-01
2.160497944059574724e-02
1.184285946580995175e-01
2.273551617777912481e-01
2.152522098756032842e-01
9.018837355299424985e-02
-8.328727037836666791e-02
-1.518706644907651671e-01
-9.539022228055464570e-02
-3.487546276961478453e-02
1.184285946580995175e-01
2.273551617777912481e-01
2.233208444770619361e-01
2.192865271763325963e-01
2.160497944059574724e-02
-9.942453958128395775e-02
-1.066955896523884284e-02
-1.195961260849305874e-01
-2.083511067009757023e-01
-3.092090392192087811e-01
-2.285226932046223181e-01
-6.715000117544937808e-02
-8.732158767909599384e-02
0.000000000000000000e+00
0.000000000000000000e+00
0.000000000000000000e+00
0.000000000000000000e+00
0.000000000000000000e+00
0.000000000000000000e+00
0.000000000000000000e+00
0.000000000000000000e+00
0.000000000000000000e+00
0.000000000000000000e+00
0.000000000000000000e+00
0.000000000000000000e+00
0.000000000000000000e+00
0.000000000000000000e+00
0.000000000000000000e+00
0.000000000000000000e+00
0.000000000000000000e+00
0.000000000000000000e+00
0.000000000000000000e+00
0.000000000000000000e+00
0.000000000000000000e+00
0.000000000000000000e+00
0.000000000000000000e+00
0.000000000000000000e+00
0.000000000000000000e+00
0.000000000000000000e+00
0.000000000000000000e+00
0.000000000000000000e+00
0.000000000000000000e+00
0.000000000000000000e+00
0.000000000000000000e+00
0.000000000000000000e+00
0.000000000000000000e+00
0.000000000000000000e+00
0.000000000000000000e+00
0.000000000000000000e+00
0.000000000000000000e+00
0.000000000000000000e+00
0.000000000000000000e+00
0.000000000000000000e+00
0.000000000000000000e+00
0.000000000000000000e+00
0.000000000000000000e+00
0.000000000000000000e+00
0.000000000000000000e+00
0.000000000000000000e+00
0.000000000000000000e+00
0.000000000000000000e+00
0.000000000000000000e+00
0.000000000000000000e+00
0.000000000000000000e+00
0.000000000000000000e+00
0.000000000000000000e+00
0.000000000000000000e+00
0.000000000000000000e+00
0.000000000000000000e+00
0.000000000000000000e+00
0.000000000000000000e+00
0.000000000000000000e+00
0.000000000000000000e+00
0.000000000000000000e+00
0.000000000000000000e+00
0.000000000000000000e+00
0.000000000000000000e+00
0.000000000000000000e+00
0.000000000000000000e+00
0.000000000000000000e+00
0.000000000000000000e+00
0.000000000000000000e+00
0.000000000000000000e+00
0.000000000000000000e+00
1.184285946580995175e-01
1.950806233719566685e-01
2.233208444770619361e-01
1.231900169659392752e+00
1.913699793482648515e+00
1.377135592485648541e+00
7.437477762711446339e-01
-2.446599624075396218e-01
-8.134987018103742029e-01
-8.982193651256900058e-01
-9.224252689300659336e-01
-1.297616777897893092e+00
-1.955210497916772816e+00
-1.200793162680389381e+00
1.305315465602874814e-01
5.581691804375957799e-01
6.469241610536409226e-01
8.244341222857310969e-01
4.976544209266559604e-01
2.596297001836258556e-01
1.224629119588288434e-01
-2.446599624075396218e-01
-1.115274914834719355e-01
-5.908136657399072622e-02
-5.101273197253208130e-02
-4.294409737107342945e-02
-1.155618087842012615e-01
-1.470387626596816703e-02
-3.487546276961478453e-02
3.370793134278371461e-02
1.110870650637513224e+00
2.353440379262144777e+00
1.647434851634513198e+00
5.823750842419717078e-01
-7.086064519914118121e-01
-2.169029314855427160e+00
-2.193235218659803198e+00
-2.019759574728441809e+00
-1.507401277535817874e+00
-9.022536824264193456e-01
-5.835426156688028332e-01
-8.328727037836666791e-02
2.959385558901897473e-01
1.139110871742618381e+00
1.433616034695859076e+00
1.288380611869603287e+00
1.147179506344077060e+00
6.388555264521822430e-01
7.074389205645807976e-01
7.034046032638514578e-01
-5.504704927326140029e-02
-4.221699236396298516e-01
7.405110435007696001e-02
9.010861509995883312e-01
1.913699793482648515e+00
5.501005458361371003e-01
-1.140278403169449506e+00
-2.003622305525524894e+00
-3.738378744839133905e+00
-3.572971735509231639e+00
-2.774176909964825910e+00
-1.636499431159156304e+00
4.774828344230093169e-01
1.732155514949828889e+00
2.365543331164332574e+00
1.824944812866603483e+00
4.694141998215506928e-01
-1.397677125885772031e-01
-9.546998073359005410e-01
-1.354097220108103627e+00
-4.665474139476524229e-01
2.112178925748739444e-01
1.171385410148452877e+00
2.208204956435888988e+00
2.841592772650392895e+00
2.994896830078106920e+00
2.478504215584753645e+00
1.615160313228678479e+00
3.282130942960243547e-01
-6.400230578790133684e-01
-9.546998073359005410e-01
-8.175330191111035427e-01
-2.043167894002463902e-01
-4.302385582410884757e-01
-4.423415101432764951e-01
-5.674053464658854740e-01
-1.382337441213208784e+00
-1.233067701086223877e+00
-1.087832278259968311e+00
-6.924691827884945639e-01
-3.535865295272313524e-01
-4.786503658498403868e-01
-1.599392990922238189e-01
-6.521260097812012768e-01
-2.580529679529818043e+00
-3.484216754893186607e+00
-2.842760304077224465e+00
-1.789803488586870550e+00
-3.656894814294193163e-01
1.223831535057934294e+00
4.136608626184505866e+00
6.117458420842603495e+00
6.379689045390009916e+00
6.032737757527288025e+00
4.277809731710031649e+00
1.994386139497235089e+00
-6.238857886760960092e-01
-2.281990199275848230e+00
-2.568426727627630246e+00
-2.382848131794081503e+00
-1.741391680978118695e+00
-1.346028585506644948e+00
-1.192724528078930701e+00
-1.216930431883306518e+00
-1.527572864039464573e+00
-2.011690940126983573e+00
-1.697014190670096179e+00
-1.245170652988411897e+00
-1.051523422553404252e+00
-7.852584807052689353e-01
-1.639736163929531310e-01
7.437477762711446339e-01
1.171385410148452877e+00
1.453787621199505553e+00
1.050355891126573349e+00
6.267525745499943346e-01
2.434924309807085518e-01
-3.172776738206674607e-01
-5.835426156688028332e-01
-9.546998073359005410e-01
-1.116072499365073467e+00
-9.627684419373592206e-01
-7.892927980059982751e-01
-4.746160485491110470e-01
-2.527285970089982459e-01
-2.002824720995170504e-01
-2.567629143097275857e-01
-2.688658662119155496e-01
1.789433541690393648e-01
4.008308057091521936e-01
3.362817288974829788e-01
4.984520054570101139e-02
1.063256427559115397e-01
6.186839399485356550e-01
6.630614302565581708e-01
8.042625357820845089e-01
1.122973602539701021e+00
1.187522679351370236e+00
9.494979586083401868e-01
5.057230555281145845e-01
1.870119887704980166e-01
-9.942453958128395775e-02
-9.539022228055464570e-02
-1.841452028965997467e-01
-4.302385582410884757e-01
-3.818267506323366201e-01
-2.688658662119155496e-01
-1.397677125885772031e-01
-2.607972316104569255e-01
-1.115274914834719355e-01
9.018837355299424985e-02
1.022913254551822138e-01
3.685562673033175862e-01
8.526743433908363645e-01
8.567086606915657043e-01
1.018081352720738630e+00
1.615160313228678479e+00
1.187522679351370236e+00
5.622034977383251197e-01
-3.656894814294193163e-01
-1.245170652988411897e+00
-1.265342239492058596e+00
-7.166750865928704917e-01
-3.656894814294193163e-01
-5.431994426615095461e-01
-4.463758274440057794e-01
-2.043167894002463902e-01
-3.084114546888546207e-02
-7.925295307763734198e-02
-1.841452028965997467e-01
-1.841452028965997467e-01
-2.164197413024343541e-01
1.063256427559115397e-01
3.040071904916484269e-01
2.596297001836258556e-01
1.668404022668514008e-01
7.001678704934763409e-02
2.515610655821671759e-01
1.507031330639340971e-01
-2.600924363780196188e-03
4.581088324497168546e-02
-1.470387626596816703e-02
-8.732158767909599384e-02
-4.697841467180275538e-02
6.194815244788898223e-02
-1.470387626596816703e-02
-9.942453958128395775e-02
-3.084114546888546207e-02
-4.697841467180275538e-02
-5.504704927326140029e-02
-2.123854240017050143e-01
-3.818267506323366201e-01
-3.051747219184794968e-01
-1.236304433856598994e-01
-2.600924363780196188e-03
1.466688157632047851e-01
9.825700815445290170e-02
6.598246974861830816e-02
-3.487546276961478453e-02
-1.760765682951411226e-01
-2.809688181141035135e-01
-2.809688181141035135e-01
-2.567629143097275857e-01
-3.495522122265020126e-01
-1.397677125885772031e-01
-1.470387626596816703e-02
1.386001811617461332e-01
8.211973895153559799e-02
-4.697841467180275538e-02
-3.890978007034411046e-02
-6.311568387472005215e-02
3.774224864351304054e-02
-5.504704927326140029e-02
9.825700815445290170e-02
-3.487546276961478453e-02
-1.236304433856598994e-01
-4.294409737107342945e-02
-1.236304433856598994e-01
4.581088324497168546e-02
-1.470387626596816703e-02
-1.195961260849305874e-01
-5.504704927326140029e-02
3.370793134278371461e-02
2.555953828828965158e-01
3.645219500025882464e-01
1.466688157632047851e-01
7.405110435007696001e-02
5.387951784643033731e-02
-1.873819356669749123e-02
5.791383514715965630e-02
2.967361404205439215e-02
5.467710237678451331e-03
1.184285946580995175e-01
7.808542165080627206e-02
1.022913254551822138e-01
1.305315465602874814e-01
9.502027538407774657e-03
9.825700815445290170e-02
1.305315465602874814e-01
-1.760765682951411226e-01
-2.607972316104569255e-01
-2.325570105053516301e-01
-1.881795201973290865e-01
-7.118431847617870400e-02
-1.801108855958704347e-01
-1.881795201973290865e-01
3.774224864351304054e-02
2.313894790785205879e-01
3.120758250931070510e-01
1.507031330639340971e-01
-6.311568387472005215e-02
-1.801108855958704347e-01
-2.688658662119155496e-01
-2.043167894002463902e-01
-2.680682816815613961e-02
-8.328727037836666791e-02
-2.769345008133742292e-01
-2.729001835126448894e-01
-1.195961260849305874e-01
2.838356039880017834e-01
6.065809880463476356e-01
6.993702859631221180e-01
2.919042385894604075e-01
-3.084114546888546207e-02
5.467710237678451331e-03
-3.979640198352539238e-01
-2.406256451068102820e-01
-1.074931741827426096e-01
3.774224864351304054e-02
1.708747195675807129e-01
-4.294409737107342945e-02
5.387951784643033731e-02
-8.328727037836666791e-02
-9.942453958128395775e-02
-1.074931741827426096e-01
-9.539022228055464570e-02
9.018837355299424985e-02
1.466688157632047851e-01
-1.470387626596816703e-02
-7.925295307763734198e-02
-1.478363471900358550e-01
-1.881795201973290865e-01
2.160497944059574724e-02
2.967361404205439215e-02
5.460662285354078715e-01
8.405713914886484561e-01
2.959385558901897473e-01
2.563929674132506970e-02
-6.715000117544937808e-02
-1.478363471900358550e-01
-1.074931741827426096e-01
-1.316990779871185513e-01
-1.559049817914945069e-01
-6.635241664509519514e-03
1.749090368683100527e-01
5.791383514715965630e-02
-1.034588568820132837e-01
-5.908136657399072622e-02
-2.600924363780196188e-03
-6.635241664509519514e-03
4.581088324497168546e-02
-3.487546276961478453e-02
-3.890978007034411046e-02
7.001678704934763409e-02
-9.539022228055464570e-02
-1.115274914834719355e-01
-3.084114546888546207e-02
2.967361404205439215e-02
-3.890978007034411046e-02
-6.715000117544937808e-02
2.160497944059574724e-02
-1.236304433856598994e-01
-1.115274914834719355e-01
-7.118431847617870400e-02
-7.925295307763734198e-02
2.192865271763325963e-01
7.276105070682273857e-01
1.885459572377543358e+00
2.869832993755498052e+00
2.668117128719031950e+00
1.716018245746911752e+00
5.985123534448890670e-01
-3.697237987301486561e-01
-1.233067701086223877e+00
-1.717185777173742656e+00
-2.314264737681682949e+00
-2.548255141123983769e+00
-2.842760304077224465e+00
-3.423701995382246732e+00
-3.048510486414419685e+00
-2.019759574728441809e+00
-7.287780384950584001e-01
-7.521863577690801606e-02
2.959385558901897473e-01
6.751643821587461902e-01
7.155075551660393662e-01
8.889831990974003118e-01
6.872673340609340986e-01
6.469241610536409226e-01
7.760223146769792413e-01
7.719879973762499015e-01
6.953359686623927782e-01
6.630614302565581708e-01
7.155075551660393662e-01
7.679536800755206727e-01
7.195418724667687060e-01
8.607429779922950441e-01
2.159793148827136910e+00
2.732666205530700942e+00
1.502199428808257631e+00
4.177656594424236647e-02
-9.708370765388179002e-01
-1.511435594836547214e+00
-1.559847402445299069e+00
-8.982193651256900058e-01
-1.034588568820132837e-01
-3.293806257228554246e-01
-5.875769329695321730e-01
-7.570182596001636677e-01
-1.164484306973825323e+00
-1.753494632880306714e+00
-1.822078026992705269e+00
-1.148347037770908186e+00
-6.722975962848479758e-01
2.233208444770619361e-01
6.872673340609340986e-01
8.284684395864604367e-01
1.187522679351370236e+00
1.026149987322197310e+00
1.086664746833137185e+00
1.385204227087107220e+00
1.187522679351370236e+00
9.051204683003176710e-01
6.630614302565581708e-01
3.370793134278371461e-02
2.071835752741446324e-01
2.717326520858138195e-01
-2.688658662119155496e-01
-9.135590497982531977e-02
2.999728731909190871e-01
2.175930418030054270e+00
3.668627819299904225e+00
2.030694995203798925e+00
6.065809880463476356e-01
-9.466311727344419724e-01
-2.064137065036464769e+00
-2.862931890580870942e+00
-3.104990928624630442e+00
-2.548255141123983769e+00
-3.104990928624630442e+00
-2.580529679529818043e+00
-2.374779497192622824e+00
-1.822078026992705269e+00
-4.786503658498403868e-01
6.307868918507235634e-01
1.369066957884189861e+00
1.627263265130866499e+00
2.204170639135159426e+00
2.389749234968708613e+00
3.019102733882482958e+00
2.155758831526407793e+00
3.322474115967536390e-01
-5.996798848717200814e-01
-1.164484306973825323e+00
-1.515469912137276554e+00
-1.906798690308020960e+00
-1.035386153350487115e+00
-2.083511067009757023e-01
1.829776714697687046e-01
1.050355891126573349e+00
1.683743707341077034e+00
2.030694995203798925e+00
1.994386139497235089e+00
1.845116399370249960e+00
1.482027842304610932e+00
8.284684395864604367e-01
2.999728731909190871e-01
-5.391651253607802063e-01
-2.725765102356073832e+00
-5.832189423917653492e+00
-6.477680192034345197e+00
-4.940605300456472726e+00
-3.217951813045051512e+00
-1.083797960959238971e+00
8.244341222857310969e-01
3.019102733882482958e+00
4.931369134428182477e+00
6.641919669937415449e+00
7.569812649105160496e+00
6.117458420842603495e+00
4.193089068394716179e+00
1.631297582431595838e+00
-7.408809903972464195e-01
-1.559847402445299069e+00
-1.668773969564990800e+00
-1.458989469927066018e+00
-1.559847402445299069e+00
-1.781734853985411871e+00
-1.668773969564990800e+00
-1.523538546738735233e+00
-1.337959950905186268e+00
-1.253239287589870576e+00
-9.990772976439231678e-01
-7.570182596001636677e-01
-5.916112502702614018e-01
-3.777924333316072802e-01
-2.809688181141035135e-01
-5.633710291651561342e-01
-5.431994426615095461e-01
-3.011404046177501570e-01
-7.126407692921411519e-01
-1.003111614944652397e+00
-1.599392990922238189e-01
1.716018245746911752e+00
1.796704591761498104e+00
2.515610655821671759e-01
-6.158171540746374406e-01
-1.265342239492058596e+00
-1.410577662318314163e+00
-9.990772976439231678e-01
-8.336702883140209019e-01
-5.875769329695321730e-01
-4.625130966469230831e-01
-7.086064519914118121e-01
-8.498075575169381501e-01
-5.916112502702614018e-01
-2.486942797082689338e-01
-7.118431847617870400e-02
8.211973895153559799e-02
6.065809880463476356e-01
1.260140390764498131e+00
1.590954409424302662e+00
1.122973602539701021e+00
6.186839399485356550e-01
3.362817288974829788e-01
1.063256427559115397e-01
-6.311568387472005215e-02
-3.495522122265020126e-01
-1.873819356669749123e-02
1.386001811617461332e-01
6.194815244788898223e-02
2.475267482814378639e-01
1.829776714697687046e-01
1.910463060712273287e-01
5.985123534448890670e-01
7.961939011806259403e-01
8.365370741879191163e-01
6.106153053470769754e-01
1.224629119588288434e-01
-5.908136657399072622e-02
-3.253463084221260848e-01
-1.115274914834719355e-01
1.950806233719566685e-01
1.353634483913709885e-02
2.475267482814378639e-01
3.524189981004002825e-01
4.250367095135281215e-01
3.604876327018589066e-01
2.394581136799792120e-01
2.515610655821671759e-01
2.967361404205439215e-02
-9.539022228055464570e-02
-1.195961260849305874e-01
-5.101273197253208130e-02
-5.504704927326140029e-02
-1.873819356669749123e-02
-1.155618087842012615e-01
-1.195961260849305874e-01
-1.639736163929531310e-01
-1.470387626596816703e-02
4.984520054570101139e-02
-9.135590497982531977e-02
1.466688157632047851e-01
-1.074931741827426096e-01
-2.204540586031636662e-01
-1.438020298893065152e-01
-7.925295307763734198e-02
3.774224864351304054e-02
1.305315465602874814e-01
3.483846807996709427e-01
3.161101423938363908e-01
2.838356039880017834e-01
1.264972292595581693e-01
1.022913254551822138e-01
-2.486942797082689338e-01
-2.607972316104569255e-01
-4.697841467180275538e-02
-9.539022228055464570e-02
-8.732158767909599384e-02
-3.132433565199381209e-01
-4.181356063389005118e-01
-4.463758274440057794e-01
-1.559049817914945069e-01
3.774224864351304054e-02
1.433392936949127571e-03
-2.083511067009757023e-01
-2.043167894002463902e-01
8.615405625226492392e-02
2.160497944059574724e-02
1.433392936949127571e-03
-2.971060873170208172e-01
-2.769345008133742292e-01
-1.276647606863892392e-01
-1.881795201973290865e-01
-2.446599624075396218e-01
-2.607972316104569255e-01
-1.357333952878478633e-01
-9.135590497982531977e-02
-1.599392990922238189e-01
-5.593367118644269054e-01
-5.310964907593216378e-01
-3.334149430235847089e-01
-3.939297025345245840e-01
-9.135590497982531977e-02
3.846935365062348899e-01
4.694141998215506928e-01
1.910463060712273287e-01
2.959385558901897473e-01
4.210023922127987817e-01
2.999728731909190871e-01
1.264972292595581693e-01
9.825700815445290170e-02
1.708747195675807129e-01
1.224629119588288434e-01
3.370793134278371461e-02
-8.328727037836666791e-02
-2.607972316104569255e-01
-2.164197413024343541e-01
-1.470387626596816703e-02
2.563929674132506970e-02
1.466688157632047851e-01
1.547374503646634369e-01
1.184285946580995175e-01
3.120758250931070510e-01
1.829776714697687046e-01
8.615405625226492392e-02
1.224629119588288434e-01
-1.470387626596816703e-02
-3.084114546888546207e-02
-2.688658662119155496e-01
-6.521260097812012768e-01
-8.215673364118328825e-01
-2.446599624075396218e-01
3.080415077923777112e-01
2.999728731909190871e-01
5.501005458361371003e-01
3.645219500025882464e-01
1.466688157632047851e-01
1.789433541690393648e-01
1.507031330639340971e-01
3.362817288974829788e-01
2.192865271763325963e-01
-1.873819356669749123e-02
1.022913254551822138e-01
7.001678704934763409e-02
-1.599392990922238189e-01
-1.074931741827426096e-01
-4.294409737107342945e-02
2.967361404205439215e-02
-3.084114546888546207e-02
-1.680079336936824708e-01
-2.043167894002463902e-01
-1.236304433856598994e-01
-1.074931741827426096e-01
-1.881795201973290865e-01
-1.760765682951411226e-01
-2.648315489111862098e-01
-3.535865295272313524e-01
-2.648315489111862098e-01
5.467710237678451331e-03
1.668404022668514008e-01
3.241787769952950149e-01
3.241787769952950149e-01
8.615405625226492392e-02
1.466688157632047851e-01
1.224629119588288434e-01
7.405110435007696001e-02
-1.873819356669749123e-02
-2.607972316104569255e-01
-4.584787793461937433e-01
-4.060326544367125479e-01
-2.527285970089982459e-01
-2.607972316104569255e-01
-1.801108855958704347e-01
1.022913254551822138e-01
2.959385558901897473e-01
2.999728731909190871e-01
1.668404022668514008e-01
7.001678704934763409e-02
1.466688157632047851e-01
3.604876327018589066e-01
3.524189981004002825e-01
7.001678704934763409e-02
8.615405625226492392e-02
3.524189981004002825e-01
3.201444596945656751e-01
1.386001811617461332e-01
3.370793134278371461e-02
1.353634483913709885e-02
2.160497944059574724e-02
3.483846807996709427e-01
7.881252665791672607e-01
3.806592192055055501e-01
-1.470387626596816703e-02
-3.253463084221260848e-01
-6.561603270819306166e-01
-6.117828367739081008e-01
-5.230278561578629581e-01
-2.930717700162914774e-01
-4.221699236396298516e-01
-2.204540586031636662e-01
-3.487546276961478453e-02
-1.680079336936824708e-01
-1.397677125885772031e-01
1.668404022668514008e-01
3.524189981004002825e-01
1.547374503646634369e-01
2.354237963792499000e-01
2.160497944059574724e-02
-1.357333952878478633e-01
-3.414835776250433885e-01
-3.616551641286899765e-01
-2.164197413024343541e-01
-2.769345008133742292e-01
-3.084114546888546207e-02
3.774224864351304054e-02
1.628060849661220610e-01
1.789433541690393648e-01
2.233208444770619361e-01
4.008308057091521936e-01
2.757669693865431593e-01
2.071835752741446324e-01
1.950806233719566685e-01
1.466688157632047851e-01
4.936201036259266206e-01
8.526743433908363645e-01
9.494979586083401868e-01
7.437477762711446339e-01
1.950806233719566685e-01
-1.316990779871185513e-01
-4.786503658498403868e-01
-4.625130966469230831e-01
-5.553023945636975656e-01
-8.094643845096449741e-01
-7.045721346906824722e-01
-9.143566343286073650e-01
-8.780477786220434178e-01
5.339632766332198521e-01
1.308552198373249986e+00
3.040071904916484269e-01
3.685562673033175862e-01
3.774224864351304054e-02
-9.143566343286073650e-01
-9.708370765388179002e-01
-1.346028585506644948e+00
-6.682632789841186360e-01
-2.285226932046223181e-01
1.184285946580995175e-01
-1.873819356669749123e-02
-4.294409737107342945e-02
1.046321573825844009e+00
1.224629119588288434e-01
-9.539022228055464570e-02
2.233208444770619361e-01
-3.898953852337952442e-01
-1.276647606863892392e-01
-4.947876350527576905e-01
-7.691212115023516871e-01
-8.659448267198555094e-01
-3.084114546888546207e-02
9.010861509995883312e-01
6.751643821587461902e-01
9.010861509995883312e-01
4.129337576113401576e-01
4.653798825208213530e-01
8.607429779922950441e-01
7.961939011806259403e-01
1.433616034695859076e+00
1.433616034695859076e+00
7.881252665791672607e-01
-4.294409737107342945e-02
-7.489496249987050991e-01
-1.458989469927066018e+00
-1.846283930797081085e+00
-1.418646296919772842e+00
-1.164484306973825323e+00
-1.519504229438005893e+00
-2.197269535960532316e+00
-1.697014190670096179e+00
-4.947876350527576905e-01
-2.930717700162914774e-01
3.322474115967536390e-01
1.223831535057934294e+00
1.740224149551287569e+00
2.054900899008174964e+00
1.578851457522114643e+00
1.360998323282731182e+00
1.288380611869603287e+00
3.685562673033175862e-01
-1.184655893477472022e+00
-1.789803488586870550e+00
-1.543710133242381932e+00
-1.418646296919772842e+00
-5.109249042556749387e-01
2.596297001836258556e-01
1.155248140945535740e+00
2.309062888954121817e+00
2.833524138048934216e+00
2.700391667124866224e+00
1.716018245746911752e+00
6.751643821587461902e-01
1.628060849661220610e-01
-3.051747219184794968e-01
-6.924691827884945639e-01
-6.884348654877652240e-01
-1.035386153350487115e+00
-1.200793162680389381e+00
-1.067660691756321611e+00
-1.067660691756321611e+00
-8.538418748176674899e-01
-4.947876350527576905e-01
1.353634483913709885e-02
5.501005458361371003e-01
1.599023044025761342e+00
3.418500146654686045e+00
4.225363606800550897e+00
2.151724514225678231e+00
4.936201036259266206e-01
8.526743433908363645e-01
-1.470387626596816703e-02
1.224629119588288434e-01
5.985123534448890670e-01
-1.034588568820132837e-01
-6.238857886760960092e-01
-1.124141133966532147e+00
-2.334436324185329426e+00
-4.517001983879893601e+00
-6.110557317667976385e+00
-6.356650673012465447e+00
-5.303693857522111976e+00
-3.092887976722442200e+00
-1.152381355071637525e+00
-2.930717700162914774e-01
6.469241610536409226e-01
1.155248140945535740e+00
1.288380611869603287e+00
1.348895371380543162e+00
1.147179506344077060e+00
1.122973602539701021e+00
1.046321573825844009e+00
1.046321573825844009e+00
1.018081352720738630e+00
1.034218621923655990e+00
1.010012718119279951e+00
9.252920548039642590e-01
7.477820935718739737e-01
6.186839399485356550e-01
4.774828344230093169e-01
3.564533154011296223e-01
7.639193627747913329e-01
8.849488817966709719e-01
9.010861509995883312e-01
8.446057087893777959e-01
5.178260074303026039e-01
3.362817288974829788e-01
2.838356039880017834e-01
1.950806233719566685e-01
4.177656594424236647e-02
-1.470387626596816703e-02
-3.737581160308779960e-01
-5.714396637666148138e-01
-2.164197413024343541e-01
2.160497944059574724e-02
2.112178925748739444e-01
4.976544209266559604e-01
5.258946420317611725e-01
1.587717676653927490e-01
1.547374503646634369e-01
1.587717676653927490e-01
-2.002824720995170504e-01
-4.141012890381712275e-01
-5.956455675709907416e-01
-1.962481547987877384e-01
1.749090368683100527e-01
1.143942773573701915e-01
9.502027538407774657e-03
-7.521863577690801606e-02
-1.074931741827426096e-01
-1.357333952878478633e-01
9.422269085372357578e-02
1.224629119588288434e-01
9.825700815445290170e-02
7.808542165080627206e-02
8.211973895153559799e-02
2.313894790785205879e-01
2.152522098756032842e-01
-2.277251086742681369e-02
-1.155618087842012615e-01
-2.083511067009757023e-01
-4.342728755418178155e-01
-6.521260097812012768e-01
-6.924691827884945639e-01
-5.553023945636975656e-01
-4.181356063389005118e-01
-3.414835776250433885e-01
-3.576208468279606922e-01
2.515610655821671759e-01
8.607429779922950441e-01
9.051204683003176710e-01
9.777381797134454544e-01
1.122973602539701021e+00
9.777381797134454544e-01
4.573112479193626734e-01
9.825700815445290170e-02
-2.164197413024343541e-01
-1.470387626596816703e-02
-1.236304433856598994e-01
-2.446599624075396218e-01
-5.908136657399072622e-02
-8.732158767909599384e-02
-2.043167894002463902e-01
-2.850031354148328533e-01
-1.801108855958704347e-01
-4.060326544367125479e-01
-4.463758274440057794e-01
-4.786503658498403868e-01
-5.835426156688028332e-01
-5.431994426615095461e-01
-3.455178949257727283e-01
-3.374492603243140487e-01
-2.809688181141035135e-01
-9.539022228055464570e-02
-2.971060873170208172e-01
-1.478363471900358550e-01
4.984520054570101139e-02
2.233208444770619361e-01
1.910463060712273287e-01
-2.680682816815613961e-02
-2.285226932046223181e-01
-4.625130966469230831e-01
-4.504101447447351192e-01
-3.616551641286899765e-01
-1.873819356669749123e-02
6.194815244788898223e-02
9.422269085372357578e-02
8.211973895153559799e-02
1.789433541690393648e-01
2.112178925748739444e-01
8.211973895153559799e-02
2.233208444770619361e-01
1.353634483913709885e-02
-8.732158767909599384e-02
5.467710237678451331e-03
2.596297001836258556e-01
2.596297001836258556e-01
7.001678704934763409e-02
6.194815244788898223e-02
4.581088324497168546e-02
5.387951784643033731e-02
1.353634483913709885e-02
1.345658638610168212e-01
9.422269085372357578e-02
2.563929674132506970e-02
8.615405625226492392e-02
1.143942773573701915e-01
7.405110435007696001e-02
3.370793134278371461e-02
8.211973895153559799e-02
1.353634483913709885e-02
9.018837355299424985e-02
1.063256427559115397e-01
7.405110435007696001e-02
2.160497944059574724e-02
1.757066213986642131e-02
1.587717676653927490e-01
1.386001811617461332e-01
-3.487546276961478453e-02
-1.881795201973290865e-01
-3.656894814294193163e-01
-5.431994426615095461e-01
-4.019983371359832636e-01
-1.034588568820132837e-01
-1.470387626596816703e-02
1.668404022668514008e-01
4.411739787164454252e-01
3.362817288974829788e-01
-6.635241664509519514e-03
-9.135590497982531977e-02
-1.066955896523884284e-02
-1.478363471900358550e-01
-1.639736163929531310e-01
2.112178925748739444e-01
1.870119887704980166e-01
-7.521863577690801606e-02
1.305315465602874814e-01
2.273551617777912481e-01
5.387951784643033731e-02
-4.697841467180275538e-02
-7.925295307763734198e-02
5.387951784643033731e-02
1.829776714697687046e-01
-1.470387626596816703e-02
-1.962481547987877384e-01
-2.446599624075396218e-01
-2.809688181141035135e-01
-1.881795201973290865e-01
-6.311568387472005215e-02
2.563929674132506970e-02
-1.470387626596816703e-02
-4.697841467180275538e-02
-6.311568387472005215e-02
-1.470387626596816703e-02
2.555953828828965158e-01
2.031492579734153203e-01
1.789433541690393648e-01
1.507031330639340971e-01
1.757066213986642131e-02
1.507031330639340971e-01
3.774224864351304054e-02
2.160497944059574724e-02
-4.294409737107342945e-02
-4.294409737107342945e-02
-6.311568387472005215e-02
-2.043167894002463902e-01
-1.559049817914945069e-01
-1.276647606863892392e-01
-3.890978007034411046e-02
1.757066213986642131e-02
0.000000000000000000e+00
0.000000000000000000e+00
0.000000000000000000e+00
0.000000000000000000e+00
0.000000000000000000e+00
0.000000000000000000e+00
0.000000000000000000e+00
0.000000000000000000e+00
0.000000000000000000e+00
0.000000000000000000e+00
0.000000000000000000e+00
0.000000000000000000e+00
0.000000000000000000e+00
0.000000000000000000e+00
0.000000000000000000e+00
0.000000000000000000e+00
0.000000000000000000e+00
0.000000000000000000e+00
0.000000000000000000e+00
0.000000000000000000e+00
0.000000000000000000e+00
0.000000000000000000e+00
0.000000000000000000e+00
0.000000000000000000e+00
0.000000000000000000e+00
0.000000000000000000e+00
0.000000000000000000e+00
0.000000000000000000e+00
0.000000000000000000e+00
0.000000000000000000e+00
0.000000000000000000e+00
0.000000000000000000e+00
0.000000000000000000e+00
0.000000000000000000e+00
0.000000000000000000e+00
0.000000000000000000e+00
0.000000000000000000e+00
0.000000000000000000e+00
0.000000000000000000e+00
0.000000000000000000e+00
0.000000000000000000e+00
0.000000000000000000e+00
0.000000000000000000e+00
0.000000000000000000e+00
-4.947876350527576905e-01
-1.051523422553404252e+00
-1.354097220108103627e+00
-1.321822681702269131e+00
-1.382337441213208784e+00
-1.398474710416126143e+00
-9.910086630424644882e-01
-3.455178949257727283e-01
7.808542165080627206e-02
3.685562673033175862e-01
6.590271129558288310e-01
8.849488817966709719e-01
1.122973602539701021e+00
1.945974331888483233e+00
2.107347023917655715e+00
1.231900169659392752e+00
4.653798825208213530e-01
-2.648315489111862098e-01
-3.576208468279606922e-01
-4.947876350527576905e-01
-1.011180249546111076e+00
-8.780477786220434178e-01
-1.051523422553404252e+00
-7.731555288030810269e-01
-2.164197413024343541e-01
-3.253463084221260848e-01
-1.478363471900358550e-01
8.446057087893777959e-01
1.954042966489941691e+00
1.385204227087107220e+00
8.446057087893777959e-01
6.630614302565581708e-01
-2.850031354148328533e-01
-1.003111614944652397e+00
-1.511435594836547214e+00
-1.458989469927066018e+00
-1.245170652988411897e+00
-1.196758845379660041e+00
-1.067660691756321611e+00
-8.538418748176674899e-01
-4.746160485491110470e-01
-1.034588568820132837e-01
9.825700815445290170e-02
2.475267482814378639e-01
3.685562673033175862e-01
4.411739787164454252e-01
3.774224864351304054e-02
-4.294409737107342945e-02
4.774828344230093169e-01
1.870119887704980166e-01
9.252920548039642590e-01
1.599023044025761342e+00
1.147179506344077060e+00
1.231900169659392752e+00
5.985123534448890670e-01
-9.539022228055464570e-02
-5.835426156688028332e-01
-7.408809903972464195e-01
-6.400230578790133684e-01
-7.118431847617870400e-02
5.904437188434303874e-01
5.662378150390544596e-01
1.042287256525114669e+00
1.417478765492941717e+00
1.365032640583460521e+00
4.976544209266559604e-01
-4.423415101432764951e-01
-8.256016537125622223e-01
-1.507401277535817874e+00
-1.329891316303727589e+00
-1.091866595560697650e+00
-8.336702883140209019e-01
-4.383071928425471553e-01
-7.892927980059982751e-01
-6.521260097812012768e-01
-3.011404046177501570e-01
4.452082960171747095e-01
1.280311977268144830e+00
1.296449246471061967e+00
1.155248140945535740e+00
1.018081352720738630e+00
8.567086606915657043e-01
3.846935365062348899e-01
-7.489496249987050991e-01
-1.390406075814667464e+00
-7.731555288030810269e-01
6.307868918507235634e-01
2.107347023917655715e+00
2.268719715946828863e+00
1.433616034695859076e+00
-4.423415101432764951e-01
-2.302161785779494707e+00
-2.790314179167743269e+00
-3.028338899910773208e+00
-2.669284660145863519e+00
-1.208861797281848061e+00
-3.414835776250433885e-01
2.475267482814378639e-01
2.417989456073813770e+00
3.402362877451768686e+00
2.575327830802257356e+00
1.502199428808257631e+00
1.386001811617461332e-01
-5.512680772629682258e-01
-5.996798848717200814e-01
-4.544444620454644590e-01
-3.051747219184794968e-01
-4.786503658498403868e-01
-2.890374527155621931e-01
-3.213119911213967450e-01
-4.705817312483817627e-01
-3.656894814294193163e-01
-7.166750865928704917e-01
-7.852584807052689353e-01
-5.835426156688028332e-01
-3.898953852337952442e-01
-1.518706644907651671e-01
1.022913254551822138e-01
2.878699212887311232e-01
4.169680749120694419e-01
3.846935365062348899e-01
4.984520054570101139e-02
-1.074931741827426096e-01
-1.599392990922238189e-01
-1.518706644907651671e-01
-3.213119911213967450e-01
-3.414835776250433885e-01
-1.357333952878478633e-01
7.808542165080627206e-02
1.386001811617461332e-01
1.386001811617461332e-01
7.001678704934763409e-02
-6.924691827884945639e-01
-4.060326544367125479e-01
3.080415077923777112e-01
3.564533154011296223e-01
7.276105070682273857e-01
7.639193627747913329e-01
8.768802471952124034e-01
6.872673340609340986e-01
3.161101423938363908e-01
1.507031330639340971e-01
-1.236304433856598994e-01
-4.294409737107342945e-02
-9.135590497982531977e-02
-2.164197413024343541e-01
-3.576208468279606922e-01
-5.593367118644269054e-01
-4.907533177520283507e-01
-1.034588568820132837e-01
-3.487546276961478453e-02
-2.123854240017050143e-01
1.022913254551822138e-01
9.825700815445290170e-02
-4.294409737107342945e-02
5.467710237678451331e-03
-1.639736163929531310e-01
-2.890374527155621931e-01
-4.786503658498403868e-01
-4.705817312483817627e-01
-3.979640198352539238e-01
-2.406256451068102820e-01
4.984520054570101139e-02
5.783407669412423679e-01
1.231900169659392752e+00
1.691812341942535713e+00
1.752327101453475588e+00
1.280311977268144830e+00
8.607429779922950441e-01
4.653798825208213530e-01
2.152522098756032842e-01
4.581088324497168546e-02
-3.890978007034411046e-02
-3.495522122265020126e-01
-6.400230578790133684e-01
-4.867190004512990109e-01
-3.455178949257727283e-01
-1.195961260849305874e-01
-3.890978007034411046e-02
-6.311568387472005215e-02
-1.115274914834719355e-01
-2.164197413024343541e-01
-1.962481547987877384e-01
-1.357333952878478633e-01
-1.438020298893065152e-01
-1.680079336936824708e-01
-1.559049817914945069e-01
-2.325570105053516301e-01
-2.527285970089982459e-01
-3.656894814294193163e-01
-4.342728755418178155e-01
-2.285226932046223181e-01
-2.164197413024343541e-01
-3.334149430235847089e-01
-2.406256451068102820e-01
-6.311568387472005215e-02
2.967361404205439215e-02
-1.873819356669749123e-02
1.991149406726859805e-01
4.613455652200920132e-01
3.040071904916484269e-01
9.502027538407774657e-03
-1.276647606863892392e-01
-2.002824720995170504e-01
-3.092090392192087811e-01
-2.446599624075396218e-01
-2.567629143097275857e-01
-1.881795201973290865e-01
1.353634483913709885e-02
9.422269085372357578e-02
7.405110435007696001e-02
-1.115274914834719355e-01
-2.285226932046223181e-01
-9.135590497982531977e-02
-1.066955896523884284e-02
-2.680682816815613961e-02
-1.873819356669749123e-02
-7.118431847617870400e-02
-6.715000117544937808e-02
1.386001811617461332e-01
1.426344984624754453e-01
8.615405625226492392e-02
9.825700815445290170e-02
1.224629119588288434e-01
1.829776714697687046e-01
2.160497944059574724e-02
-1.155618087842012615e-01
-1.195961260849305874e-01
-9.539022228055464570e-02
-1.034588568820132837e-01
-2.680682816815613961e-02
7.405110435007696001e-02
2.112178925748739444e-01
1.264972292595581693e-01
-6.311568387472005215e-02
-1.074931741827426096e-01
-1.881795201973290865e-01
-1.962481547987877384e-01
-2.688658662119155496e-01
-3.455178949257727283e-01
-6.715000117544937808e-02
1.910463060712273287e-01
-6.635241664509519514e-03
-1.438020298893065152e-01
1.829776714697687046e-01
4.581088324497168546e-02
-1.599392990922238189e-01
3.774224864351304054e-02
3.564533154011296223e-01
4.532769306186333891e-01
2.596297001836258556e-01
1.184285946580995175e-01
-1.074931741827426096e-01
-2.527285970089982459e-01
-1.236304433856598994e-01
-1.873819356669749123e-02
7.001678704934763409e-02
7.405110435007696001e-02
6.598246974861830816e-02
1.063256427559115397e-01
1.224629119588288434e-01
-2.600924363780196188e-03
-2.688658662119155496e-01
-2.164197413024343541e-01
-4.294409737107342945e-02
-2.680682816815613961e-02
2.112178925748739444e-01
3.524189981004002825e-01
1.345658638610168212e-01
8.615405625226492392e-02
-6.635241664509519514e-03
-1.962481547987877384e-01
-1.680079336936824708e-01
-1.438020298893065152e-01
-1.316990779871185513e-01
-2.002824720995170504e-01
-1.276647606863892392e-01
9.018837355299424985e-02
-3.890978007034411046e-02
-1.639736163929531310e-01
-6.715000117544937808e-02
-6.311568387472005215e-02
9.018837355299424985e-02
3.564533154011296223e-01
4.815171517237386567e-01
4.210023922127987817e-01
1.910463060712273287e-01
1.224629119588288434e-01
4.984520054570101139e-02
-1.470387626596816703e-02
-3.084114546888546207e-02
5.791383514715965630e-02
1.386001811617461332e-01
1.757066213986642131e-02
-2.680682816815613961e-02
-7.521863577690801606e-02
1.433392936949127571e-03
1.305315465602874814e-01
1.668404022668514008e-01
1.305315465602874814e-01
0.000000000000000000e+00
0.000000000000000000e+00
0.000000000000000000e+00
0.000000000000000000e+00
0.000000000000000000e+00
0.000000000000000000e+00
0.000000000000000000e+00
0.000000000000000000e+00
0.000000000000000000e+00
0.000000000000000000e+00
0.000000000000000000e+00
0.000000000000000000e+00
0.000000000000000000e+00
0.000000000000000000e+00
0.000000000000000000e+00
0.000000000000000000e+00
0.000000000000000000e+00
0.000000000000000000e+00
0.000000000000000000e+00
0.000000000000000000e+00
0.000000000000000000e+00
0.000000000000000000e+00
0.000000000000000000e+00
0.000000000000000000e+00
0.000000000000000000e+00
0.000000000000000000e+00
0.000000000000000000e+00
0.000000000000000000e+00
5.218603247310318327e-01
7.961939011806259403e-01
8.123311703835431885e-01
6.993702859631221180e-01
1.005978400818550611e+00
8.405713914886484561e-01
-2.680682816815613961e-02
-4.544444620454644590e-01
-1.350062902807374288e+00
-2.318299054982412066e+00
-2.374779497192622824e+00
-1.822078026992705269e+00
-9.627684419373592206e-01
1.184285946580995175e-01
5.460662285354078715e-01
3.564533154011296223e-01
3.967964884084228538e-01
4.177656594424236647e-02
1.224629119588288434e-01
9.502027538407774657e-03
-4.294409737107342945e-02
1.757066213986642131e-02
-4.423415101432764951e-01
4.774828344230093169e-01
2.030694995203798925e+00
1.647434851634513198e+00
7.518164108726033135e-01
6.751643821587461902e-01
-2.930717700162914774e-01
-4.705817312483817627e-01
-3.495522122265020126e-01
-3.051747219184794968e-01
-2.729001835126448894e-01
-4.019983371359832636e-01
-2.890374527155621931e-01
-1.148347037770908186e+00
-1.785769171286141210e+00
-1.333925633604456928e+00
-3.535865295272313524e-01
-8.659448267198555094e-01
-1.612293527354780265e+00
-8.538418748176674899e-01
-6.400230578790133684e-01
4.581088324497168546e-02
6.307868918507235634e-01
7.881252665791672607e-01
1.631297582431595838e+00
1.889493889678272698e+00
2.083141120113280120e+00
1.841082082069520620e+00
1.102802016036054544e+00
1.122973602539701021e+00
4.936201036259266206e-01
-1.438020298893065152e-01
4.984520054570101139e-02
-3.092090392192087811e-01
-4.705817312483817627e-01
-3.084114546888546207e-02
1.870119887704980166e-01
2.563929674132506970e-02
1.668404022668514008e-01
6.106153053470769754e-01
4.936201036259266206e-01
2.999728731909190871e-01
-9.135590497982531977e-02
-2.527285970089982459e-01
-3.576208468279606922e-01
-5.109249042556749387e-01
-4.867190004512990109e-01
-9.950429803431938280e-01
-1.224999066484765198e+00
-9.304939035315246132e-01
-7.925295307763734198e-02
1.991149406726859805e-01
-1.066955896523884284e-02
-3.697237987301486561e-01
-1.099935230162156330e+00
-3.818267506323366201e-01
6.194815244788898223e-02
1.264972292595581693e-01
8.365370741879191163e-01
2.002454774098693768e+00
2.438161042577460247e+00
1.683743707341077034e+00
8.526743433908363645e-01
1.870119887704980166e-01
5.662378150390544596e-01
1.042287256525114669e+00
-1.116072499365073467e+00
-3.694001254531111389e+00
-3.048510486414419685e+00
-2.156926362953239362e+00
-4.302385582410884757e-01
1.740224149551287569e+00
2.732666205530700942e+00
3.652490550096986865e+00
3.160303839408009186e+00
2.587430782704445154e+00
1.155248140945535740e+00
-6.077485194731787610e-01
-2.302161785779494707e+00
-3.564903100907773403e+00
-3.823099408154449819e+00
-3.367221553172036419e+00
-2.156926362953239362e+00
-1.527572864039464573e+00
-7.731555288030810269e-01
-2.164197413024343541e-01
2.555953828828965158e-01
4.936201036259266206e-01
3.846935365062348899e-01
5.218603247310318327e-01
3.161101423938363908e-01
1.466688157632047851e-01
-7.118431847617870400e-02
1.022913254551822138e-01
2.354237963792499000e-01
2.959385558901897473e-01
3.241787769952950149e-01
1.749090368683100527e-01
3.282130942960243547e-01
4.169680749120694419e-01
4.532769306186333891e-01
3.564533154011296223e-01
1.466688157632047851e-01
2.967361404205439215e-02
-1.195961260849305874e-01
-9.539022228055464570e-02
8.615405625226492392e-02
3.774224864351304054e-02
-1.873819356669749123e-02
2.798012866872724436e-01
3.120758250931070510e-01
2.919042385894604075e-01
4.250367095135281215e-01
5.097573728288439243e-01
4.008308057091521936e-01
1.910463060712273287e-01
-6.635241664509519514e-03
-1.438020298893065152e-01
-7.118431847617870400e-02
-3.084114546888546207e-02
9.502027538407774657e-03
-1.276647606863892392e-01
-1.720422509944117828e-01
-5.908136657399072622e-02
-1.478363471900358550e-01
-2.600924363780196188e-03
1.224629119588288434e-01
1.224629119588288434e-01
3.241787769952950149e-01
4.815171517237386567e-01
6.307868918507235634e-01
7.276105070682273857e-01
6.388555264521822430e-01
4.694141998215506928e-01
2.757669693865431593e-01
1.433392936949127571e-03
-7.118431847617870400e-02
-1.881795201973290865e-01
-3.455178949257727283e-01
-2.850031354148328533e-01
-1.962481547987877384e-01
1.433392936949127571e-03
-1.155618087842012615e-01
-3.374492603243140487e-01
-1.760765682951411226e-01
-3.011404046177501570e-01
-2.890374527155621931e-01
-1.881795201973290865e-01
-3.253463084221260848e-01
6.194815244788898223e-02
1.426344984624754453e-01
-1.155618087842012615e-01
-1.397677125885772031e-01
-1.873819356669749123e-02
3.645219500025882464e-01
4.815171517237386567e-01
3.322474115967536390e-01
3.846935365062348899e-01
2.757669693865431593e-01
-1.066955896523884284e-02
-1.316990779871185513e-01
-1.316990779871185513e-01
-1.599392990922238189e-01
-1.397677125885772031e-01
-8.328727037836666791e-02
-1.397677125885772031e-01
-2.607972316104569255e-01
-3.495522122265020126e-01
-1.720422509944117828e-01
-1.195961260849305874e-01
-2.486942797082689338e-01
-1.720422509944117828e-01
-1.236304433856598994e-01
2.160497944059574724e-02
-1.066955896523884284e-02
1.386001811617461332e-01
9.422269085372357578e-02
-1.074931741827426096e-01
-7.118431847617870400e-02
-1.357333952878478633e-01
-7.521863577690801606e-02
-2.325570105053516301e-01
-1.801108855958704347e-01
-2.043167894002463902e-01
-2.890374527155621931e-01
-3.495522122265020126e-01
-3.656894814294193163e-01
-1.599392990922238189e-01
-2.285226932046223181e-01
-7.925295307763734198e-02
1.426344984624754453e-01
2.192865271763325963e-01
2.313894790785205879e-01
1.708747195675807129e-01
1.386001811617461332e-01
1.628060849661220610e-01
1.345658638610168212e-01
-2.277251086742681369e-02
-4.697841467180275538e-02
-1.195961260849305874e-01
-1.316990779871185513e-01
5.387951784643033731e-02
3.645219500025882464e-01
4.169680749120694419e-01
3.645219500025882464e-01
2.757669693865431593e-01
9.422269085372357578e-02
8.211973895153559799e-02
-1.680079336936824708e-01
-3.818267506323366201e-01
-3.374492603243140487e-01
-3.051747219184794968e-01
-1.034588568820132837e-01
-6.311568387472005215e-02
4.581088324497168546e-02
1.991149406726859805e-01
1.628060849661220610e-01
1.305315465602874814e-01
-1.074931741827426096e-01
-2.244883759038930060e-01
-9.539022228055464570e-02
-1.518706644907651671e-01
-1.074931741827426096e-01
4.177656594424236647e-02
1.143942773573701915e-01
-5.908136657399072622e-02
-1.801108855958704347e-01
-5.504704927326140029e-02
-1.115274914834719355e-01
-7.521863577690801606e-02
-9.942453958128395775e-02
-1.680079336936824708e-01
-4.294409737107342945e-02
-3.084114546888546207e-02
3.161101423938363908e-01
5.622034977383251197e-01
4.008308057091521936e-01
3.685562673033175862e-01
1.507031330639340971e-01
1.433392936949127571e-03
1.386001811617461332e-01
2.878699212887311232e-01
2.838356039880017834e-01
1.063256427559115397e-01
-2.567629143097275857e-01
-3.495522122265020126e-01
-3.293806257228554246e-01
-3.051747219184794968e-01
-4.697841467180275538e-02
8.615405625226492392e-02
1.749090368683100527e-01
-3.890978007034411046e-02
-1.518706644907651671e-01
-1.559049817914945069e-01
-2.890374527155621931e-01
-1.841452028965997467e-01
7.405110435007696001e-02
2.273551617777912481e-01
1.264972292595581693e-01
3.120758250931070510e-01
4.290710268142574613e-01
3.040071904916484269e-01
0.000000000000000000e+00
0.000000000000000000e+00
-1.559049817914945069e-01
-1.720422509944117828e-01
-4.697841467180275538e-02
-3.487546276961478453e-02
-2.600924363780196188e-03
3.774224864351304054e-02
-1.760765682951411226e-01
-8.054300672089156343e-01
-5.512680772629682258e-01
3.774224864351304054e-02
3.645219500025882464e-01
7.840909492784379209e-01
8.284684395864604367e-01
9.777381797134454544e-01
6.993702859631221180e-01
1.386001811617461332e-01
-1.478363471900358550e-01
-1.438020298893065152e-01
-2.204540586031636662e-01
-7.570182596001636677e-01
-9.990772976439231678e-01
-6.480916924804719370e-01
-3.818267506323366201e-01
-4.221699236396298516e-01
-4.504101447447351192e-01
-2.729001835126448894e-01
-2.277251086742681369e-02
1.870119887704980166e-01
4.573112479193626734e-01
5.743064496405131392e-01
8.284684395864604367e-01
1.147179506344077060e+00
7.114732378653101375e-01
4.129337576113401576e-01
1.668404022668514008e-01
-2.486942797082689338e-01
-5.028562696542163701e-01
-6.803662308863065444e-01
-4.342728755418178155e-01
-8.256016537125622223e-01
-1.495298325633629855e+00
-7.731555288030810269e-01
2.967361404205439215e-02
4.290710268142574613e-01
8.768802471952124034e-01
1.135076554441889041e+00
1.607091678627220022e+00
1.155248140945535740e+00
7.518164108726033135e-01
1.534473967214092127e+00
1.913699793482648515e+00
9.858068143149041340e-01
-1.034588568820132837e-01
-6.480916924804719370e-01
-1.200793162680389381e+00
-1.434783566122689979e+00
-1.108003864763614787e+00
-8.861164132235020974e-01
-1.297616777897893092e+00
-1.503366960235088534e+00
-1.418646296919772842e+00
-1.406543345017584823e+00
-1.918901642210208980e+00
-2.047999795833547410e+00
-1.676842604166449480e+00
-1.741391680978118695e+00
-1.051523422553404252e+00
-2.680682816815613961e-02
7.961939011806259403e-01
1.058424525728032028e+00
5.864094015427010476e-01
5.743064496405131392e-01
7.437477762711446339e-01
1.950806233719566685e-01
3.080415077923777112e-01
1.881425255076814018e+00
3.470946271564167240e+00
3.418500146654686045e+00
2.422023773374542888e+00
1.574817140221385303e+00
4.411739787164454252e-01
-5.553023945636975656e-01
-1.200793162680389381e+00
-1.442852200724148659e+00
-1.822078026992705269e+00
-1.418646296919772842e+00
-7.328123557957877399e-01
-4.383071928425471553e-01
7.808542165080627206e-02
2.313894790785205879e-01
-1.559049817914945069e-01
1.668404022668514008e-01
9.010861509995883312e-01
1.433616034695859076e+00
1.913699793482648515e+00
1.558679871018467944e+00
9.737038624127161146e-01
-5.310964907593216378e-01
-1.850318248097810425e+00
-2.374779497192622824e+00
-3.104990928624630442e+00
-2.903275063588164340e+00
-2.455465843207209176e+00
-2.047999795833547410e+00
-1.434783566122689979e+00
-8.336702883140209019e-01
8.244341222857310969e-01
2.732666205530700942e+00
3.700902357705738499e+00
4.572314894663272788e+00
5.246045883885069649e+00
4.540040356257438070e+00
2.793180965041640818e+00
8.768802471952124034e-01
-4.342728755418178155e-01
-1.136244085868720166e+00
-2.072205699637923448e+00
-2.947652553896186856e+00
-3.048510486414419685e+00
-2.745936688859720309e+00
-2.548255141123983769e+00
-1.527572864039464573e+00
-4.947876350527576905e-01
1.547374503646634369e-01
9.938754489163627026e-01
1.558679871018467944e+00
2.534984657794963958e+00
2.958587974371543083e+00
2.216273591037347668e+00
1.385204227087107220e+00
9.414293240068815072e-01
7.518164108726033135e-01
-1.438020298893065152e-01
-1.140278403169449506e+00
-1.684911238767908159e+00
-2.064137065036464769e+00
-1.789803488586870550e+00
-1.184655893477472022e+00
-8.054300672089156343e-01
-7.166750865928704917e-01
-5.109249042556749387e-01
2.160497944059574724e-02
9.018837355299424985e-02
1.870119887704980166e-01
8.405713914886484561e-01
2.958587974371543083e+00
5.544585364139039463e+00
3.309573579534994092e+00
-1.011180249546111076e+00
-3.193745909240675473e+00
-4.633997185601043789e+00
-4.682408993209795867e+00
-3.484216754893186607e+00
-2.326367689583870746e+00
-2.072205699637923448e+00
-4.060326544367125479e-01
1.252071756163039451e+00
6.388555264521822430e-01
4.895857863251972808e-01
9.018837355299424985e-02
-1.599392990922238189e-01
1.507031330639340971e-01
5.791383514715965630e-02
5.218603247310318327e-01
4.411739787164454252e-01
2.313894790785205879e-01
6.267525745499943346e-01
4.411739787164454252e-01
4.008308057091521936e-01
4.290710268142574613e-01
4.210023922127987817e-01
4.492426133179040493e-01
2.394581136799792120e-01
1.386001811617461332e-01
3.774224864351304054e-02
1.063256427559115397e-01
4.331053441149867456e-01
5.985123534448890670e-01
6.267525745499943346e-01
5.702721323397837994e-01
4.573112479193626734e-01
3.685562673033175862e-01
5.387951784643033731e-02
-1.680079336936824708e-01
-2.083511067009757023e-01
-2.648315489111862098e-01
-2.729001835126448894e-01
2.112178925748739444e-01
5.662378150390544596e-01
1.063256427559115397e-01
9.422269085372357578e-02
2.919042385894604075e-01
4.177656594424236647e-02
-7.731555288030810269e-01
-1.458989469927066018e+00
-1.051523422553404252e+00
-5.230278561578629581e-01
4.613455652200920132e-01
1.147179506344077060e+00
6.791986994594755300e-01
1.668404022668514008e-01
2.999728731909190871e-01
7.437477762711446339e-01
4.774828344230093169e-01
4.129337576113401576e-01
4.250367095135281215e-01
7.276105070682273857e-01
1.042287256525114669e+00
8.082968530828138487e-01
2.878699212887311232e-01
-7.166750865928704917e-01
-1.067660691756321611e+00
-6.238857886760960092e-01
-4.625130966469230831e-01
-5.553023945636975656e-01
-3.172776738206674607e-01
-3.374492603243140487e-01
-4.181356063389005118e-01
-3.495522122265020126e-01
-4.019983371359832636e-01
-4.383071928425471553e-01
-4.302385582410884757e-01
-2.244883759038930060e-01
3.120758250931070510e-01
9.414293240068815072e-01
9.494979586083401868e-01
7.155075551660393662e-01
3.685562673033175862e-01
4.008308057091521936e-01
4.936201036259266206e-01
-3.084114546888546207e-02
-2.446599624075396218e-01
-1.841452028965997467e-01
-1.195961260849305874e-01
5.467710237678451331e-03
-9.942453958128395775e-02
-2.486942797082689338e-01
-7.925295307763734198e-02
-5.908136657399072622e-02
4.984520054570101139e-02
2.515610655821671759e-01
2.233208444770619361e-01
1.345658638610168212e-01
-6.635241664509519514e-03
9.825700815445290170e-02
9.018837355299424985e-02
-5.101273197253208130e-02
-1.639736163929531310e-01
-2.729001835126448894e-01
-3.898953852337952442e-01
-4.342728755418178155e-01
-1.397677125885772031e-01
1.757066213986642131e-02
-1.873819356669749123e-02
-1.470387626596816703e-02
-5.504704927326140029e-02
-1.470387626596816703e-02
-2.277251086742681369e-02
-1.518706644907651671e-01
-2.285226932046223181e-01
-2.850031354148328533e-01
-3.697237987301486561e-01
-4.947876350527576905e-01
-4.463758274440057794e-01
-2.406256451068102820e-01
-8.328727037836666791e-02
9.422269085372357578e-02
2.192865271763325963e-01
1.224629119588288434e-01
2.160497944059574724e-02
-4.697841467180275538e-02
-1.195961260849305874e-01
-1.236304433856598994e-01
-8.732158767909599384e-02
9.422269085372357578e-02
2.475267482814378639e-01
4.452082960171747095e-01
7.155075551660393662e-01
5.420319112346785317e-01
2.031492579734153203e-01
1.628060849661220610e-01
4.984520054570101139e-02
-1.841452028965997467e-01
-1.236304433856598994e-01
-5.504704927326140029e-02
-1.276647606863892392e-01
-2.164197413024343541e-01
-1.881795201973290865e-01
-1.680079336936824708e-01
-2.971060873170208172e-01
-2.688658662119155496e-01
-3.132433565199381209e-01
-2.446599624075396218e-01
-1.639736163929531310e-01
-2.680682816815613961e-02
2.354237963792499000e-01
2.878699212887311232e-01
3.604876327018589066e-01
3.080415077923777112e-01
2.394581136799792120e-01
1.749090368683100527e-01
-6.635241664509519514e-03
-1.195961260849305874e-01
3.370793134278371461e-02
1.426344984624754453e-01
-7.521863577690801606e-02
-2.486942797082689338e-01
-2.971060873170208172e-01
-2.406256451068102820e-01
-2.406256451068102820e-01
-1.962481547987877384e-01
-1.841452028965997467e-01
-2.688658662119155496e-01
-1.680079336936824708e-01
8.211973895153559799e-02
1.950806233719566685e-01
2.475267482814378639e-01
4.008308057091521936e-01
2.798012866872724436e-01
1.143942773573701915e-01
-1.397677125885772031e-01
-2.083511067009757023e-01
-1.316990779871185513e-01
-2.083511067009757023e-01
-8.732158767909599384e-02
-6.635241664509519514e-03
-1.316990779871185513e-01
-1.115274914834719355e-01
1.022913254551822138e-01
5.791383514715965630e-02
-2.680682816815613961e-02
-9.942453958128395775e-02
-6.715000117544937808e-02
1.264972292595581693e-01
2.354237963792499000e-01
4.250367095135281215e-01
4.492426133179040493e-01
3.282130942960243547e-01
2.273551617777912481e-01
-6.715000117544937808e-02
-2.123854240017050143e-01
-1.881795201973290865e-01
-2.567629143097275857e-01
-1.397677125885772031e-01
1.433392936949127571e-03
5.387951784643033731e-02
1.910463060712273287e-01
1.466688157632047851e-01
1.386001811617461332e-01
1.628060849661220610e-01
1.063256427559115397e-01
3.370793134278371461e-02
5.387951784643033731e-02
0.000000000000000000e+00
0.000000000000000000e+00
0.000000000000000000e+00
0.000000000000000000e+00
0.000000000000000000e+00
0.000000000000000000e+00
0.000000000000000000e+00
0.000000000000000000e+00
0.000000000000000000e+00
0.000000000000000000e+00
0.000000000000000000e+00
0.000000000000000000e+00
0.000000000000000000e+00
0.000000000000000000e+00
0.000000000000000000e+00
0.000000000000000000e+00
0.000000000000000000e+00
0.000000000000000000e+00
0.000000000000000000e+00
0.000000000000000000e+00
0.000000000000000000e+00
0.000000000000000000e+00
0.000000000000000000e+00
0.000000000000000000e+00
0.000000000000000000e+00
0.000000000000000000e+00
7.405110435007696001e-02
2.112178925748739444e-01
-1.760765682951411226e-01
-5.431994426615095461e-01
-7.489496249987050991e-01
-1.019248884147569756e+00
-4.342728755418178155e-01
6.598246974861830816e-02
2.798012866872724436e-01
1.184285946580995175e-01
-3.890978007034411046e-02
-2.680682816815613961e-02
-2.285226932046223181e-01
5.467710237678451331e-03
-1.195961260849305874e-01
1.757066213986642131e-02
3.766249019047762103e-01
-7.852584807052689353e-01
-2.281990199275848230e+00
-2.947652553896186856e+00
-3.012201630707855848e+00
-2.140789093750322003e+00
-1.087832278259968311e+00
-3.818267506323366201e-01
-9.708370765388179002e-01
-1.136244085868720166e+00
3.241787769952950149e-01
1.288380611869603287e+00
2.365543331164332574e+00
3.019102733882482958e+00
3.257127454625512897e+00
3.466911954263438123e+00
2.470435580983294965e+00
1.954042966489941691e+00
1.252071756163039451e+00
1.224629119588288434e-01
-2.567629143097275857e-01
-3.858610679330659599e-01
6.598246974861830816e-02
1.022115670021467970e+00
8.203998049850018681e-01
-5.593367118644269054e-01
-1.741391680978118695e+00
-3.104990928624630442e+00
-3.625417860418713278e+00
-2.810485765671389746e+00
-1.894695738405832941e+00
-1.087832278259968311e+00
3.483846807996709427e-01
1.845116399370249960e+00
1.304517881072520646e+00
-3.777924333316072802e-01
-1.789803488586870550e+00
-2.580529679529818043e+00
-2.181132266757615401e+00
-1.491264008332900515e+00
-3.051747219184794968e-01
9.575665932097988664e-01
2.208204956435888988e+00
3.362019704444475288e+00
2.994896830078106920e+00
3.160303839408009186e+00
2.668117128719031950e+00
1.453787621199505553e+00
5.743064496405131392e-01
-2.325570105053516301e-01
-1.079763643658509631e+00
-2.532117871921066410e+00
-3.104990928624630442e+00
-3.048510486414419685e+00
-1.886627103804374261e+00
-1.881795201973290865e-01
1.808807543663686124e+00
3.527426713774377554e+00
3.188544060513114786e+00
3.224852916219678622e+00
3.402362877451768686e+00
2.470435580983294965e+00
1.122973602539701021e+00
-7.166750865928704917e-01
-1.822078026992705269e+00
-2.052034113134276527e+00
-1.705082825271554858e+00
-1.414611979619043503e+00
-6.117828367739081008e-01
8.607429779922950441e-01
9.010861509995883312e-01
6.227182572492649948e-01
3.645219500025882464e-01
-2.285226932046223181e-01
-3.858610679330659599e-01
-7.166750865928704917e-01
-6.359887405782840286e-01
-5.553023945636975656e-01
-5.714396637666148138e-01
5.791383514715965630e-02
2.717326520858138195e-01
2.757669693865431593e-01
-9.627684419373592206e-01
-2.047999795833547410e+00
-1.737357363677389355e+00
-1.789803488586870550e+00
-1.136244085868720166e+00
-5.270621734585922979e-01
2.031492579734153203e-01
6.267525745499943346e-01
2.596297001836258556e-01
1.231900169659392752e+00
1.385204227087107220e+00
8.203998049850018681e-01
5.339632766332198521e-01
-5.674053464658854740e-01
-5.109249042556749387e-01
-1.559049817914945069e-01
-3.818267506323366201e-01
-2.083511067009757023e-01
-3.011404046177501570e-01
-2.930717700162914774e-01
-1.760765682951411226e-01
-1.195961260849305874e-01
-7.925295307763734198e-02
-9.942453958128395775e-02
-1.680079336936824708e-01
-1.074931741827426096e-01
-7.925295307763734198e-02
-2.277251086742681369e-02
5.791383514715965630e-02
2.273551617777912481e-01
3.040071904916484269e-01
2.233208444770619361e-01
2.838356039880017834e-01
1.668404022668514008e-01
1.264972292595581693e-01
1.184285946580995175e-01
-7.521863577690801606e-02
-3.697237987301486561e-01
-4.463758274440057794e-01
-2.325570105053516301e-01
3.370793134278371461e-02
1.386001811617461332e-01
2.967361404205439215e-02
2.596297001836258556e-01
4.613455652200920132e-01
4.855514690244679410e-01
3.927621711076935140e-01
1.991149406726859805e-01
2.031492579734153203e-01
2.563929674132506970e-02
-5.504704927326140029e-02
1.870119887704980166e-01
9.018837355299424985e-02
8.615405625226492392e-02
4.008308057091521936e-01
1.466688157632047851e-01
-1.397677125885772031e-01
-1.841452028965997467e-01
1.757066213986642131e-02
5.097573728288439243e-01
6.791986994594755300e-01
5.783407669412423679e-01
1.184285946580995175e-01
-4.697841467180275538e-02
8.211973895153559799e-02
1.433392936949127571e-03
5.791383514715965630e-02
7.405110435007696001e-02
1.507031330639340971e-01
6.598246974861830816e-02
-4.697841467180275538e-02
1.950806233719566685e-01
3.080415077923777112e-01
2.434924309807085518e-01
-3.487546276961478453e-02
-7.118431847617870400e-02
-1.962481547987877384e-01
-3.616551641286899765e-01
-4.463758274440057794e-01
-4.665474139476524229e-01
-2.527285970089982459e-01
-4.060326544367125479e-01
-3.374492603243140487e-01
-2.648315489111862098e-01
-2.446599624075396218e-01
-1.397677125885772031e-01
-2.680682816815613961e-02
-6.311568387472005215e-02
-1.236304433856598994e-01
-2.680682816815613961e-02
-1.276647606863892392e-01
-2.002824720995170504e-01
-1.599392990922238189e-01
-3.253463084221260848e-01
-3.737581160308779960e-01
-2.002824720995170504e-01
-1.195961260849305874e-01
-3.487546276961478453e-02
-2.164197413024343541e-01
-3.374492603243140487e-01
-8.328727037836666791e-02
7.001678704934763409e-02
1.708747195675807129e-01
3.362817288974829788e-01
5.258946420317611725e-01
3.846935365062348899e-01
1.628060849661220610e-01
-3.487546276961478453e-02
-1.397677125885772031e-01
-2.406256451068102820e-01
-2.244883759038930060e-01
-9.135590497982531977e-02
-1.478363471900358550e-01
-1.276647606863892392e-01
-1.518706644907651671e-01
-1.559049817914945069e-01
-1.074931741827426096e-01
-1.357333952878478633e-01
-2.325570105053516301e-01
-3.334149430235847089e-01
-8.732158767909599384e-02
4.008308057091521936e-01
8.123311703835431885e-01
6.791986994594755300e-01
2.192865271763325963e-01
2.192865271763325963e-01
2.475267482814378639e-01
2.434924309807085518e-01
2.757669693865431593e-01
2.071835752741446324e-01
3.282130942960243547e-01
-7.521863577690801606e-02
-2.890374527155621931e-01
-4.294409737107342945e-02
-4.697841467180275538e-02
-1.276647606863892392e-01
-4.294409737107342945e-02
2.563929674132506970e-02
-2.567629143097275857e-01
-1.639736163929531310e-01
-1.599392990922238189e-01
-3.374492603243140487e-01
-3.414835776250433885e-01
-1.236304433856598994e-01
4.411739787164454252e-01
6.469241610536409226e-01
6.267525745499943346e-01
5.420319112346785317e-01
3.806592192055055501e-01
2.354237963792499000e-01
5.387951784643033731e-02
-1.115274914834719355e-01
-3.213119911213967450e-01
-5.875769329695321730e-01
-5.593367118644269054e-01
-4.342728755418178155e-01
-2.446599624075396218e-01
-1.066955896523884284e-02
-6.635241664509519514e-03
5.791383514715965630e-02
-6.635241664509519514e-03
-1.115274914834719355e-01
-2.285226932046223181e-01
5.387951784643033731e-02
3.282130942960243547e-01
1.264972292595581693e-01
1.910463060712273287e-01
5.387951784643033731e-02
-1.639736163929531310e-01
-1.599392990922238189e-01
2.563929674132506970e-02
8.615405625226492392e-02
1.507031330639340971e-01
4.210023922127987817e-01
3.846935365062348899e-01
1.950806233719566685e-01
1.184285946580995175e-01
-5.504704927326140029e-02
-1.276647606863892392e-01
-1.074931741827426096e-01
-1.074931741827426096e-01
-1.962481547987877384e-01
-5.916112502702614018e-01
-7.408809903972464195e-01
-4.141012890381712275e-01
-2.809688181141035135e-01
-6.311568387472005215e-02
1.628060849661220610e-01
1.433392936949127571e-03
4.177656594424236647e-02
2.233208444770619361e-01
1.950806233719566685e-01
2.233208444770619361e-01
1.910463060712273287e-01
1.910463060712273287e-01
2.233208444770619361e-01
-1.470387626596816703e-02
-3.890978007034411046e-02
4.984520054570101139e-02
1.507031330639340971e-01
1.507031330639340971e-01
7.001678704934763409e-02
4.984520054570101139e-02
-4.294409737107342945e-02
1.184285946580995175e-01
6.194815244788898223e-02
-5.504704927326140029e-02
8.615405625226492392e-02
8.615405625226492392e-02
-8.328727037836666791e-02
1.353634483913709885e-02
1.386001811617461332e-01
9.825700815445290170e-02
9.502027538407774657e-03
-1.801108855958704347e-01
-1.397677125885772031e-01
-2.688658662119155496e-01
-2.285226932046223181e-01
-1.639736163929531310e-01
-2.123854240017050143e-01
-1.276647606863892392e-01
-1.599392990922238189e-01
9.502027538407774657e-03
1.587717676653927490e-01
1.184285946580995175e-01
-1.559049817914945069e-01
-9.942453958128395775e-02
-1.074931741827426096e-01
-1.074931741827426096e-01
2.071835752741446324e-01
1.224629119588288434e-01
2.434924309807085518e-01
4.492426133179040493e-01
4.250367095135281215e-01
2.878699212887311232e-01
9.422269085372357578e-02
-4.697841467180275538e-02
-2.083511067009757023e-01
-2.164197413024343541e-01
-1.881795201973290865e-01
-1.195961260849305874e-01
5.467710237678451331e-03
2.152522098756032842e-01
3.846935365062348899e-01
4.250367095135281215e-01
4.452082960171747095e-01
5.258946420317611725e-01
4.694141998215506928e-01
3.362817288974829788e-01
3.766249019047762103e-01
5.501005458361371003e-01
6.307868918507235634e-01
7.518164108726033135e-01
9.252920548039642590e-01
4.532769306186333891e-01
-3.979640198352539238e-01
-1.192724528078930701e+00
-2.217441122464179237e+00
-2.580529679529818043e+00
-2.423191304801374457e+00
-2.645078756341487480e+00
-3.024304582610043646e+00
-2.810485765671389746e+00
-1.822078026992705269e+00
-4.342728755418178155e-01
8.123311703835431885e-01
1.683743707341077034e+00
2.405886504171625973e+00
2.127518610421302636e+00
2.208204956435888988e+00
3.160303839408009186e+00
2.107347023917655715e+00
5.622034977383251197e-01
4.895857863251972808e-01
-4.181356063389005118e-01
-8.417389229154794705e-01
-1.003111614944652397e+00
-6.400230578790133684e-01
2.313894790785205879e-01
3.524189981004002825e-01
7.405110435007696001e-02
-5.674053464658854740e-01
8.211973895153559799e-02
5.299289593324905123e-01
1.215762900456475615e+00
1.518336698011174768e+00
8.849488817966709719e-01
4.290710268142574613e-01
-1.316990779871185513e-01
-2.930717700162914774e-01
-1.265342239492058596e+00
-2.257784295471472191e+00
-2.047999795833547410e+00
-1.709117142572284198e+00
-1.446886518024877999e+00
-1.257273604890599916e+00
-1.124141133966532147e+00
-4.100669717374418877e-01
1.063256427559115397e-01
1.386001811617461332e-01
1.870119887704980166e-01
-7.287780384950584001e-01
-2.104480238043758167e+00
-2.209372487862720558e+00
-2.607972316104569255e-01
1.385204227087107220e+00
2.841592772650392895e+00
4.015579107162626116e+00
3.749314165314490577e+00
3.257127454625512897e+00
2.321165840856310059e+00
9.010861509995883312e-01
7.808542165080627206e-02
-6.400230578790133684e-01
-8.336702883140209019e-01
-4.504101447447351192e-01
3.040071904916484269e-01
1.360998323282731182e+00
1.034218621923655990e+00
-5.504704927326140029e-02
-9.143566343286073650e-01
-1.184655893477472022e+00
-7.892927980059982751e-01
-4.947876350527576905e-01
7.921595838798966005e-01
2.559190561599339997e+00
1.433616034695859076e+00
-1.346028585506644948e+00
-1.664739652264261460e+00
-1.148347037770908186e+00
-2.083511067009757023e-01
9.051204683003176710e-01
1.647434851634513198e+00
2.030694995203798925e+00
1.683743707341077034e+00
1.808807543663686124e+00
-2.769345008133742292e-01
-3.028338899910773208e+00
-3.883614167665389694e+00
-4.178119330618630833e+00
-3.532628562501938685e+00
-2.112548872645216846e+00
-1.180621576176742682e+00
-6.117828367739081008e-01
-1.438020298893065152e-01
-2.277251086742681369e-02
2.394581136799792120e-01
2.878699212887311232e-01
3.362817288974829788e-01
3.322474115967536390e-01
2.919042385894604075e-01
2.999728731909190871e-01
2.152522098756032842e-01
1.547374503646634369e-01
1.022913254551822138e-01
2.394581136799792120e-01
4.250367095135281215e-01
3.564533154011296223e-01
1.224629119588288434e-01
2.160497944059574724e-02
1.305315465602874814e-01
1.224629119588288434e-01
6.598246974861830816e-02
2.313894790785205879e-01
2.757669693865431593e-01
4.290710268142574613e-01
3.443503634989416584e-01
7.405110435007696001e-02
1.345658638610168212e-01
1.063256427559115397e-01
-4.294409737107342945e-02
-7.925295307763734198e-02
-4.697841467180275538e-02
-4.294409737107342945e-02
1.466688157632047851e-01
3.362817288974829788e-01
4.008308057091521936e-01
5.985123534448890670e-01
5.339632766332198521e-01
5.581691804375957799e-01
6.388555264521822430e-01
3.362817288974829788e-01
-9.942453958128395775e-02
-3.616551641286899765e-01
-4.060326544367125479e-01
-1.962481547987877384e-01
-1.074931741827426096e-01
-1.720422509944117828e-01
-1.357333952878478633e-01
8.211973895153559799e-02
2.434924309807085518e-01
4.290710268142574613e-01
9.777381797134454544e-01
1.187522679351370236e+00
9.051204683003176710e-01
2.999728731909190871e-01
-3.084114546888546207e-02
2.878699212887311232e-01
2.596297001836258556e-01
-8.732158767909599384e-02
-3.414835776250433885e-01
-3.172776738206674607e-01
-3.092090392192087811e-01
-5.310964907593216378e-01
-2.930717700162914774e-01
-1.066955896523884284e-02
-8.328727037836666791e-02
-3.414835776250433885e-01
-4.907533177520283507e-01
-6.722975962848479758e-01
-5.795082983680734934e-01
-4.221699236396298516e-01
-2.567629143097275857e-01
5.467710237678451331e-03
-2.277251086742681369e-02
2.160497944059574724e-02
9.422269085372357578e-02
6.598246974861830816e-02
-1.873819356669749123e-02
-7.925295307763734198e-02
-2.600924363780196188e-03
4.177656594424236647e-02
8.615405625226492392e-02
-2.600924363780196188e-03
-3.890978007034411046e-02
1.433392936949127571e-03
-1.397677125885772031e-01
-6.311568387472005215e-02
-4.294409737107342945e-02
-2.930717700162914774e-01
-3.455178949257727283e-01
-1.397677125885772031e-01
-1.316990779871185513e-01
-1.599392990922238189e-01
4.984520054570101139e-02
-7.118431847617870400e-02
-1.680079336936824708e-01
-1.881795201973290865e-01
-2.204540586031636662e-01
-4.294409737107342945e-02
-1.195961260849305874e-01
-1.873819356669749123e-02
1.991149406726859805e-01
4.411739787164454252e-01
4.129337576113401576e-01
1.749090368683100527e-01
3.370793134278371461e-02
-4.060326544367125479e-01
-4.383071928425471553e-01
-8.732158767909599384e-02
5.791383514715965630e-02
2.031492579734153203e-01
4.984520054570101139e-02
6.598246974861830816e-02
2.967361404205439215e-02
1.022913254551822138e-01
3.120758250931070510e-01
1.829776714697687046e-01
1.587717676653927490e-01
9.422269085372357578e-02
-1.066955896523884284e-02
3.370793134278371461e-02
4.581088324497168546e-02
-2.406256451068102820e-01
-2.406256451068102820e-01
-1.639736163929531310e-01
-1.470387626596816703e-02
2.313894790785205879e-01
1.870119887704980166e-01
3.282130942960243547e-01
3.362817288974829788e-01
1.353634483913709885e-02
1.353634483913709885e-02
-4.697841467180275538e-02
-2.123854240017050143e-01
-3.656894814294193163e-01
-5.068905869549455989e-01
-1.841452028965997467e-01
-2.600924363780196188e-03
9.825700815445290170e-02
2.394581136799792120e-01
3.927621711076935140e-01
4.290710268142574613e-01
1.708747195675807129e-01
1.628060849661220610e-01
-9.135590497982531977e-02
-1.639736163929531310e-01
-1.115274914834719355e-01
-2.164197413024343541e-01
8.211973895153559799e-02
2.838356039880017834e-01
4.169680749120694419e-01
2.475267482814378639e-01
-3.890978007034411046e-02
-1.720422509944117828e-01
-2.446599624075396218e-01
-2.083511067009757023e-01
-2.325570105053516301e-01
-1.639736163929531310e-01
-1.316990779871185513e-01
-1.760765682951411226e-01
-9.539022228055464570e-02
4.581088324497168546e-02
-1.873819356669749123e-02
-5.504704927326140029e-02
-2.277251086742681369e-02
6.194815244788898223e-02
2.878699212887311232e-01
2.596297001836258556e-01
1.789433541690393648e-01
4.581088324497168546e-02
-1.962481547987877384e-01
-2.406256451068102820e-01
-1.639736163929531310e-01
-2.164197413024343541e-01
-5.068905869549455989e-01
-6.884348654877652240e-01
-2.043167894002463902e-01
2.757669693865431593e-01
1.749090368683100527e-01
1.870119887704980166e-01
5.097573728288439243e-01
6.388555264521822430e-01
4.210023922127987817e-01
2.838356039880017834e-01
2.112178925748739444e-01
8.211973895153559799e-02
3.370793134278371461e-02
-1.720422509944117828e-01
-3.374492603243140487e-01
-3.414835776250433885e-01
-3.334149430235847089e-01
-2.204540586031636662e-01
1.757066213986642131e-02
2.112178925748739444e-01
2.515610655821671759e-01
2.031492579734153203e-01
9.825700815445290170e-02
5.467710237678451331e-03
2.967361404205439215e-02
-3.890978007034411046e-02
-3.084114546888546207e-02
1.103599600566408656e-01
2.160497944059574724e-02
-8.732158767909599384e-02
1.022913254551822138e-01
9.825700815445290170e-02
-7.925295307763734198e-02
-3.487546276961478453e-02
-2.729001835126448894e-01
-2.971060873170208172e-01
-1.881795201973290865e-01
-6.311568387472005215e-02
9.018837355299424985e-02
8.211973895153559799e-02
1.224629119588288434e-01
4.129337576113401576e-01
1.385204227087107220e+00
1.740224149551287569e+00
9.575665932097988664e-01
5.501005458361371003e-01
-1.881795201973290865e-01
-8.820820959227727576e-01
-1.124141133966532147e+00
-1.406543345017584823e+00
-1.337959950905186268e+00
-1.410577662318314163e+00
-1.305685412499351772e+00
-1.108003864763614787e+00
-8.820820959227727576e-01
-7.086064519914118121e-01
-4.867190004512990109e-01
2.160497944059574724e-02
3.927621711076935140e-01
3.846935365062348899e-01
4.331053441149867456e-01
5.743064496405131392e-01
6.791986994594755300e-01
6.307868918507235634e-01
4.573112479193626734e-01
6.106153053470769754e-01
8.526743433908363645e-01
1.260140390764498131e+00
8.889831990974003118e-01
4.976544209266559604e-01
1.147179506344077060e+00
9.414293240068815072e-01
7.639193627747913329e-01
2.798012866872724436e-01
-4.947876350527576905e-01
-7.892927980059982751e-01
-2.064137065036464769e+00
-3.104990928624630442e+00
-3.193745909240675473e+00
-2.568426727627630246e+00
-9.546998073359005410e-01
6.630614302565581708e-01
1.385204227087107220e+00
1.546576919116280147e+00
1.582885774822843983e+00
1.308552198373249986e+00
9.252920548039642590e-01
6.630614302565581708e-01
4.371396614157160854e-01
3.846935365062348899e-01
6.307868918507235634e-01
9.494979586083401868e-01
-7.925295307763734198e-02
-1.350062902807374288e+00
-1.741391680978118695e+00
-2.019759574728441809e+00
-1.281479508694975733e+00
-1.034588568820132837e-01
8.849488817966709719e-01
1.889493889678272698e+00
2.619705321110279872e+00
2.841592772650392895e+00
2.240479494841723707e+00
7.961939011806259403e-01
-7.166750865928704917e-01
-1.116072499365073467e+00
-6.884348654877652240e-01
-8.982193651256900058e-01
-1.390406075814667464e+00
-1.511435594836547214e+00
-9.264595862307952734e-01
6.307868918507235634e-01
1.090699064133866525e+00
2.596297001836258556e-01
-8.732158767909599384e-02
-6.682632789841186360e-01
-1.200793162680389381e+00
-1.116072499365073467e+00
-1.164484306973825323e+00
-1.059592057154862932e+00
-8.215673364118328825e-01
-1.962481547987877384e-01
1.022913254551822138e-01
9.252920548039642590e-01
2.083141120113280120e+00
1.594988726725032002e+00
1.433616034695859076e+00
1.171385410148452877e+00
1.026149987322197310e+00
1.223831535057934294e+00
5.420319112346785317e-01
3.120758250931070510e-01
1.022913254551822138e-01
-2.043167894002463902e-01
-9.950429803431938280e-01
-2.072205699637923448e+00
-2.701559198551697794e+00
-3.072716390218795723e+00
-3.508422658697562646e+00
-3.048510486414419685e+00
-1.067660691756321611e+00
9.494979586083401868e-01
2.534984657794963958e+00
3.317642214136452772e+00
3.878412318937829006e+00
4.229397924101280459e+00
3.487083540767084600e+00
2.272754033247557981e+00
9.737038624127161146e-01
5.791383514715965630e-02
-2.164197413024343541e-01
4.411739787164454252e-01
8.042625357820845089e-01
-3.762584648643509944e+00
-8.389946592580043827e+00
-7.078793469843014385e+00
-5.303693857522111976e+00
-1.906798690308020960e+00
1.945974331888483233e+00
4.499697183250145116e+00
5.887502334701031792e+00
5.572825585244144619e+00
5.201668393577047134e+00
3.224852916219678622e+00
1.647434851634513198e+00
-3.092090392192087811e-01
-2.245681343569284394e+00
-3.104990928624630442e+00
-2.915378015490352137e+00
-2.193235218659803198e+00
-1.947141863315314136e+00
-1.265342239492058596e+00
-8.215673364118328825e-01
-5.875769329695321730e-01
-5.512680772629682258e-01
-3.253463084221260848e-01
-3.939297025345245840e-01
-5.310964907593216378e-01
-3.939297025345245840e-01
-3.374492603243140487e-01
-3.495522122265020126e-01
-3.334149430235847089e-01
-1.599392990922238189e-01
1.547374503646634369e-01
6.953359686623927782e-01
1.122973602539701021e+00
1.482027842304610932e+00
1.074561794930949166e+00
3.846935365062348899e-01
-4.294409737107342945e-02
-4.141012890381712275e-01
-5.109249042556749387e-01
-5.553023945636975656e-01
-6.924691827884945639e-01
-7.408809903972464195e-01
-7.166750865928704917e-01
-5.633710291651561342e-01
-8.732158767909599384e-02
3.362817288974829788e-01
6.791986994594755300e-01
7.477820935718739737e-01
7.719879973762499015e-01
5.904437188434303874e-01
3.201444596945656751e-01
1.070527477630219826e+00
9.575665932097988664e-01
3.120758250931070510e-01
1.143942773573701915e-01
-8.175330191111035427e-01
-1.035386153350487115e+00
-7.892927980059982751e-01
-8.054300672089156343e-01
-6.561603270819306166e-01
-2.446599624075396218e-01
1.829776714697687046e-01
3.685562673033175862e-01
7.316448243689567255e-01
5.339632766332198521e-01
2.475267482814378639e-01
3.685562673033175862e-01
5.097573728288439243e-01
5.501005458361371003e-01
1.668404022668514008e-01
1.708747195675807129e-01
4.371396614157160854e-01
4.613455652200920132e-01
7.405110435007696001e-02
6.194815244788898223e-02
2.878699212887311232e-01
2.394581136799792120e-01
1.668404022668514008e-01
-2.607972316104569255e-01
-5.593367118644269054e-01
-5.714396637666148138e-01
-3.697237987301486561e-01
-2.123854240017050143e-01
-2.688658662119155496e-01
-4.294409737107342945e-02
3.604876327018589066e-01
3.564533154011296223e-01
5.541348631368664401e-01
8.244341222857310969e-01
1.026149987322197310e+00
9.414293240068815072e-01
3.443503634989416584e-01
2.515610655821671759e-01
1.870119887704980166e-01
-1.559049817914945069e-01
-3.334149430235847089e-01
-4.746160485491110470e-01
-5.553023945636975656e-01
-4.947876350527576905e-01
-4.665474139476524229e-01
-4.019983371359832636e-01
-3.084114546888546207e-02
-2.680682816815613961e-02
-1.438020298893065152e-01
-7.521863577690801606e-02
-1.276647606863892392e-01
-8.328727037836666791e-02
-9.942453958128395775e-02
-1.841452028965997467e-01
-2.971060873170208172e-01
-4.625130966469230831e-01
-6.198514713753666694e-01
-6.037142021724494212e-01
-3.616551641286899765e-01
-1.115274914834719355e-01
-3.890978007034411046e-02
-9.135590497982531977e-02
9.825700815445290170e-02
2.192865271763325963e-01
1.870119887704980166e-01
2.313894790785205879e-01
2.160497944059574724e-02
-7.925295307763734198e-02
-1.276647606863892392e-01
-1.680079336936824708e-01
-1.720422509944117828e-01
-2.406256451068102820e-01
-1.034588568820132837e-01
-7.118431847617870400e-02
-4.697841467180275538e-02
-1.066955896523884284e-02
-3.487546276961478453e-02
-6.311568387472005215e-02
1.353634483913709885e-02
1.507031330639340971e-01
5.467710237678451331e-03
9.422269085372357578e-02
3.120758250931070510e-01
8.615405625226492392e-02
-7.118431847617870400e-02
9.502027538407774657e-03
2.999728731909190871e-01
3.524189981004002825e-01
4.129337576113401576e-01
4.331053441149867456e-01
2.031492579734153203e-01
7.808542165080627206e-02
-1.518706644907651671e-01
-1.720422509944117828e-01
-6.635241664509519514e-03
1.708747195675807129e-01
9.825700815445290170e-02
-9.135590497982531977e-02
-1.276647606863892392e-01
-1.599392990922238189e-01
-1.316990779871185513e-01
-1.760765682951411226e-01
-2.607972316104569255e-01
-2.486942797082689338e-01
-2.680682816815613961e-02
7.001678704934763409e-02
-1.438020298893065152e-01
-2.083511067009757023e-01
-1.115274914834719355e-01
-2.325570105053516301e-01
-3.172776738206674607e-01
-6.311568387472005215e-02
9.422269085372357578e-02
2.563929674132506970e-02
6.598246974861830816e-02
2.233208444770619361e-01
3.524189981004002825e-01
3.645219500025882464e-01
4.411739787164454252e-01
2.475267482814378639e-01
-2.600924363780196188e-03
3.774224864351304054e-02
-2.244883759038930060e-01
-3.374492603243140487e-01
-2.164197413024343541e-01
-1.801108855958704347e-01
-1.559049817914945069e-01
-1.034588568820132837e-01
1.353634483913709885e-02
1.757066213986642131e-02
1.353634483913709885e-02
-5.908136657399072622e-02
9.825700815445290170e-02
3.201444596945656751e-01
4.008308057091521936e-01
3.685562673033175862e-01
1.910463060712273287e-01
1.950806233719566685e-01
-2.680682816815613961e-02
-9.539022228055464570e-02
-4.294409737107342945e-02
-2.680682816815613961e-02
9.018837355299424985e-02
4.984520054570101139e-02
1.022913254551822138e-01
1.829776714697687046e-01
2.434924309807085518e-01
1.910463060712273287e-01
-6.635241664509519514e-03
-1.881795201973290865e-01
-3.374492603243140487e-01
-2.083511067009757023e-01
-5.908136657399072622e-02
0.000000000000000000e+00
0.000000000000000000e+00
0.000000000000000000e+00
0.000000000000000000e+00
0.000000000000000000e+00
-6.635241664509519514e-03
1.143942773573701915e-01
1.587717676653927490e-01
1.224629119588288434e-01
1.507031330639340971e-01
2.959385558901897473e-01
8.768802471952124034e-01
1.514302380710445428e+00
1.417478765492941717e+00
6.106153053470769754e-01
-2.083511067009757023e-01
-9.990772976439231678e-01
-1.527572864039464573e+00
-1.559847402445299069e+00
-1.527572864039464573e+00
-1.527572864039464573e+00
-1.354097220108103627e+00
-9.103223170278780252e-01
-4.463758274440057794e-01
-9.539022228055464570e-02
1.433392936949127571e-03
1.950806233719566685e-01
2.434924309807085518e-01
2.596297001836258556e-01
3.201444596945656751e-01
3.806592192055055501e-01
4.008308057091521936e-01
3.806592192055055501e-01
3.443503634989416584e-01
1.668404022668514008e-01
2.959385558901897473e-01
1.829776714697687046e-01
2.273551617777912481e-01
6.106153053470769754e-01
6.307868918507235634e-01
4.129337576113401576e-01
1.547374503646634369e-01
2.071835752741446324e-01
1.345658638610168212e-01
-2.600924363780196188e-03
-1.760765682951411226e-01
-2.043167894002463902e-01
-1.357333952878478633e-01
-2.890374527155621931e-01
-3.616551641286899765e-01
-5.068905869549455989e-01
-3.818267506323366201e-01
-4.697841467180275538e-02
1.022913254551822138e-01
2.596297001836258556e-01
2.515610655821671759e-01
3.322474115967536390e-01
2.999728731909190871e-01
2.475267482814378639e-01
2.233208444770619361e-01
9.502027538407774657e-03
-4.100669717374418877e-01
-7.892927980059982751e-01
-5.270621734585922979e-01
-3.293806257228554246e-01
-1.841452028965997467e-01
1.353634483913709885e-02
1.829776714697687046e-01
2.919042385894604075e-01
-5.504704927326140029e-02
-3.576208468279606922e-01
-2.204540586031636662e-01
6.194815244788898223e-02
5.178260074303026039e-01
1.231900169659392752e+00
2.438161042577460247e+00
3.362019704444475288e+00
2.087175437414009238e+00
8.123311703835431885e-01
5.387951784643033731e-02
-1.624396479256968284e+00
-2.314264737681682949e+00
-2.265852930072930871e+00
-2.003622305525524894e+00
-1.245170652988411897e+00
-6.319544232775546888e-01
1.507031330639340971e-01
3.604876327018589066e-01
-5.391651253607802063e-01
-1.354097220108103627e+00
-9.224252689300659336e-01
-2.809688181141035135e-01
-3.939297025345245840e-01
-7.973614326074569547e-01
-1.592121940851133788e+00
-2.140789093750322003e+00
-1.224999066484765198e+00
-1.680079336936824708e-01
2.152522098756032842e-01
8.082968530828138487e-01
1.534473967214092127e+00
1.716018245746911752e+00
1.482027842304610932e+00
1.171385410148452877e+00
1.885459572377543358e+00
2.107347023917655715e+00
1.348895371380543162e+00
1.296449246471061967e+00
1.155248140945535740e+00
1.381169909786377881e+00
8.768802471952124034e-01
4.411739787164454252e-01
-2.123854240017050143e-01
-1.253239287589870576e+00
-1.628430796557697624e+00
-1.527572864039464573e+00
-1.297616777897893092e+00
-5.674053464658854740e-01
8.526743433908363645e-01
8.930175163981296516e-01
8.365370741879191163e-01
5.460662285354078715e-01
2.999728731909190871e-01
1.022913254551822138e-01
-4.705817312483817627e-01
-4.746160485491110470e-01
-9.708370765388179002e-01
-1.265342239492058596e+00
-1.208861797281848061e+00
-8.820820959227727576e-01
-1.035386153350487115e+00
-8.054300672089156343e-01
-3.132433565199381209e-01
-5.504704927326140029e-02
4.210023922127987817e-01
3.967964884084228538e-01
5.501005458361371003e-01
8.526743433908363645e-01
1.792670274460768765e+00
1.647434851634513198e+00
-6.311568387472005215e-02
-1.390406075814667464e+00
-1.406543345017584823e+00
-1.599392990922238189e-01
6.469241610536409226e-01
2.010523408700152448e+00
3.204681329716031701e+00
2.946485022469355286e+00
2.208204956435888988e+00
4.008308057091521936e-01
-1.664739652264261460e+00
-2.064137065036464769e+00
-2.281990199275848230e+00
-3.104990928624630442e+00
-3.246192034150156669e+00
-2.721730785055344715e+00
-2.003622305525524894e+00
-1.354097220108103627e+00
-4.786503658498403868e-01
-2.164197413024343541e-01
2.555953828828965158e-01
3.685562673033175862e-01
3.846935365062348899e-01
6.872673340609340986e-01
6.872673340609340986e-01
6.630614302565581708e-01
6.065809880463476356e-01
6.872673340609340986e-01
3.806592192055055501e-01
-2.680682816815613961e-02
-3.334149430235847089e-01
-4.060326544367125479e-01
-2.285226932046223181e-01
3.370793134278371461e-02
2.878699212887311232e-01
3.927621711076935140e-01
7.405110435007696001e-02
1.386001811617461332e-01
1.668404022668514008e-01
-8.328727037836666791e-02
-1.720422509944117828e-01
-4.665474139476524229e-01
-3.576208468279606922e-01
-3.084114546888546207e-02
4.774828344230093169e-01
6.630614302565581708e-01
5.057230555281145845e-01
2.596297001836258556e-01
2.394581136799792120e-01
3.604876327018589066e-01
5.137916901295732641e-01
6.993702859631221180e-01
7.518164108726033135e-01
1.453787621199505553e+00
1.776533005257851627e+00
1.526405332612633448e+00
9.575665932097988664e-01
3.282130942960243547e-01
7.405110435007696001e-02
-1.962481547987877384e-01
-5.835426156688028332e-01
-8.659448267198555094e-01
-9.062879997271486854e-01
-5.714396637666148138e-01
-4.786503658498403868e-01
-5.109249042556749387e-01
-2.729001835126448894e-01
-6.359887405782840286e-01
-8.659448267198555094e-01
-5.593367118644269054e-01
5.467710237678451331e-03
1.708747195675807129e-01
6.598246974861830816e-02
4.371396614157160854e-01
4.411739787164454252e-01
6.227182572492649948e-01
8.325027568871897765e-01
9.051204683003176710e-01
9.737038624127161146e-01
6.953359686623927782e-01
3.362817288974829788e-01
6.194815244788898223e-02
-1.680079336936824708e-01
-2.204540586031636662e-01
-4.383071928425471553e-01
-5.028562696542163701e-01
-3.939297025345245840e-01
-3.939297025345245840e-01
-3.051747219184794968e-01
-9.942453958128395775e-02
1.143942773573701915e-01
6.194815244788898223e-02
-5.908136657399072622e-02
-2.204540586031636662e-01
-2.123854240017050143e-01
-3.487546276961478453e-02
-3.890978007034411046e-02
-2.164197413024343541e-01
-2.809688181141035135e-01
-3.334149430235847089e-01
-4.019983371359832636e-01
-2.769345008133742292e-01
-2.688658662119155496e-01
-2.043167894002463902e-01
-1.720422509944117828e-01
-1.559049817914945069e-01
-8.732158767909599384e-02
-1.438020298893065152e-01
-7.118431847617870400e-02
-6.311568387472005215e-02
-9.942453958128395775e-02
2.160497944059574724e-02
3.370793134278371461e-02
1.757066213986642131e-02
4.177656594424236647e-02
-2.680682816815613961e-02
-2.325570105053516301e-01
-1.962481547987877384e-01
-4.697841467180275538e-02
-1.034588568820132837e-01
-5.908136657399072622e-02
-7.925295307763734198e-02
-1.760765682951411226e-01
-1.720422509944117828e-01
-5.908136657399072622e-02
-1.962481547987877384e-01
-1.518706644907651671e-01
-1.760765682951411226e-01
-2.607972316104569255e-01
7.808542165080627206e-02
2.112178925748739444e-01
2.999728731909190871e-01
4.008308057091521936e-01
3.080415077923777112e-01
1.022913254551822138e-01
1.426344984624754453e-01
1.466688157632047851e-01
1.353634483913709885e-02
-2.083511067009757023e-01
-3.293806257228554246e-01
-1.518706644907651671e-01
-1.115274914834719355e-01
-9.135590497982531977e-02
2.555953828828965158e-01
2.717326520858138195e-01
2.031492579734153203e-01
1.668404022668514008e-01
6.194815244788898223e-02
2.112178925748739444e-01
1.305315465602874814e-01
1.950806233719566685e-01
4.581088324497168546e-02
-2.769345008133742292e-01
-1.518706644907651671e-01
-1.115274914834719355e-01
-1.155618087842012615e-01
2.967361404205439215e-02
8.615405625226492392e-02
1.264972292595581693e-01
9.825700815445290170e-02
-1.962481547987877384e-01
-1.478363471900358550e-01
1.829776714697687046e-01
1.628060849661220610e-01
-8.732158767909599384e-02
-1.438020298893065152e-01
-2.123854240017050143e-01
-4.181356063389005118e-01
-3.898953852337952442e-01
-2.204540586031636662e-01
1.433392936949127571e-03
5.791383514715965630e-02
8.211973895153559799e-02
-6.635241664509519514e-03
-1.236304433856598994e-01
2.160497944059574724e-02
1.757066213986642131e-02
1.950806233719566685e-01
2.555953828828965158e-01
1.547374503646634369e-01
-5.504704927326140029e-02
-4.463758274440057794e-01
-5.230278561578629581e-01
-2.406256451068102820e-01
-9.135590497982531977e-02
0.000000000000000000e+00
0.000000000000000000e+00
0.000000000000000000e+00
0.000000000000000000e+00
0.000000000000000000e+00
0.000000000000000000e+00
0.000000000000000000e+00
0.000000000000000000e+00
0.000000000000000000e+00
0.000000000000000000e+00
0.000000000000000000e+00
0.000000000000000000e+00
0.000000000000000000e+00
0.000000000000000000e+00
0.000000000000000000e+00
0.000000000000000000e+00
0.000000000000000000e+00
0.000000000000000000e+00
0.000000000000000000e+00
0.000000000000000000e+00
0.000000000000000000e+00
0.000000000000000000e+00
0.000000000000000000e+00
0.000000000000000000e+00
0.000000000000000000e+00
0.000000000000000000e+00
0.000000000000000000e+00
0.000000000000000000e+00
0.000000000000000000e+00
0.000000000000000000e+00
-3.890978007034411046e-02
-1.873819356669749123e-02
-1.155618087842012615e-01
-7.118431847617870400e-02
6.194815244788898223e-02
1.224629119588288434e-01
1.063256427559115397e-01
1.305315465602874814e-01
1.345658638610168212e-01
-1.680079336936824708e-01
-2.325570105053516301e-01
0.000000000000000000e+00
0.000000000000000000e+00
0.000000000000000000e+00
0.000000000000000000e+00
0.000000000000000000e+00
0.000000000000000000e+00
0.000000000000000000e+00
0.000000000000000000e+00
0.000000000000000000e+00
0.000000000000000000e+00
0.000000000000000000e+00
0.000000000000000000e+00
0.000000000000000000e+00
0.000000000000000000e+00
0.000000000000000000e+00
0.000000000000000000e+00
0.000000000000000000e+00
0.000000000000000000e+00
0.000000000000000000e+00
0.000000000000000000e+00
0.000000000000000000e+00
0.000000000000000000e+00
0.000000000000000000e+00
0.000000000000000000e+00
0.000000000000000000e+00
0.000000000000000000e+00
0.000000000000000000e+00
0.000000000000000000e+00
0.000000000000000000e+00
0.000000000000000000e+00
0.000000000000000000e+00
0.000000000000000000e+00
0.000000000000000000e+00
0.000000000000000000e+00
0.000000000000000000e+00
6.598246974861830816e-02
-1.841452028965997467e-01
1.507031330639340971e-01
6.186839399485356550e-01
8.244341222857310969e-01
1.336792419478355143e+00
1.417478765492941717e+00
1.224629119588288434e-01
-1.116072499365073467e+00
-1.414611979619043503e+00
-1.354097220108103627e+00
-8.296359710132915621e-01
2.798012866872724436e-01
1.348895371380543162e+00
1.223831535057934294e+00
8.607429779922950441e-01
5.137916901295732641e-01
-1.195961260849305874e-01
-7.408809903972464195e-01
-1.624396479256968284e+00
-2.019759574728441809e+00
-2.419156987500645339e+00
-2.685421929348780434e+00
-1.705082825271554858e+00
-5.956455675709907416e-01
2.160497944059574724e-02
1.042287256525114669e+00
1.776533005257851627e+00
2.470435580983294965e+00
2.849661407251851575e+00
2.793180965041640818e+00
2.175930418030054270e+00
1.913699793482648515e+00
3.160303839408009186e+00
2.619705321110279872e+00
3.362817288974829788e-01
-1.341994268205915608e+00
-2.842760304077224465e+00
-3.367221553172036419e+00
-2.862931890580870942e+00
-1.999587988224795332e+00
-1.083797960959238971e+00
-4.947876350527576905e-01
-2.527285970089982459e-01
-9.539022228055464570e-02
-2.277251086742681369e-02
-7.570182596001636677e-01
-8.780477786220434178e-01
-9.466311727344419724e-01
-9.062879997271486854e-01
-1.066955896523884284e-02
2.192865271763325963e-01
2.555953828828965158e-01
4.177656594424236647e-02
-3.084114546888546207e-02
5.791383514715965630e-02
9.825700815445290170e-02
2.596297001836258556e-01
1.345658638610168212e-01
-2.002824720995170504e-01
-9.910086630424644882e-01
-1.822078026992705269e+00
-2.475637429710855653e+00
-1.672808286865720140e+00
-1.438020298893065152e-01
5.743064496405131392e-01
1.893528206979001816e+00
3.527426713774377554e+00
4.713516000188798571e+00
4.769996442399009773e+00
3.979270251456061835e+00
2.946485022469355286e+00
1.417478765492941717e+00
6.953359686623927782e-01
-2.325570105053516301e-01
-9.627684419373592206e-01
4.815171517237386567e-01
2.220307908338076786e+00
6.227182572492649948e-01
-2.705593515852427355e+00
-5.303693857522111976e+00
-6.784288306889773246e+00
-5.271419319116277258e+00
-3.072716390218795723e+00
-6.400230578790133684e-01
1.683743707341077034e+00
3.317642214136452772e+00
3.955064347651686241e+00
3.402362877451768686e+00
2.619705321110279872e+00
1.776533005257851627e+00
7.760223146769792413e-01
-7.892927980059982751e-01
-1.894695738405832941e+00
-2.197269535960532316e+00
-1.789803488586870550e+00
-1.737357363677389355e+00
-1.418646296919772842e+00
-9.990772976439231678e-01
-7.731555288030810269e-01
-4.141012890381712275e-01
-5.504704927326140029e-02
5.823750842419717078e-01
5.944780361441597272e-01
2.555953828828965158e-01
-7.118431847617870400e-02
-2.486942797082689338e-01
-5.674053464658854740e-01
-6.279201059768253490e-01
-4.100669717374418877e-01
-2.204540586031636662e-01
-2.890374527155621931e-01
-6.037142021724494212e-01
-8.457732402162088103e-01
-9.990772976439231678e-01
-5.835426156688028332e-01
1.433392936949127571e-03
4.532769306186333891e-01
5.460662285354078715e-01
3.201444596945656751e-01
1.022913254551822138e-01
1.991149406726859805e-01
4.331053441149867456e-01
3.806592192055055501e-01
4.008308057091521936e-01
5.541348631368664401e-01
3.040071904916484269e-01
2.717326520858138195e-01
8.284684395864604367e-01
1.155248140945535740e+00
1.046321573825844009e+00
6.267525745499943346e-01
2.192865271763325963e-01
-1.155618087842012615e-01
-3.697237987301486561e-01
-2.527285970089982459e-01
8.211973895153559799e-02
3.806592192055055501e-01
8.405713914886484561e-01
1.038252939224385329e+00
8.607429779922950441e-01
3.483846807996709427e-01
-1.881795201973290865e-01
-5.754739810673441536e-01
-6.965035000892239037e-01
-5.674053464658854740e-01
-5.714396637666148138e-01
-2.043167894002463902e-01
-5.504704927326140029e-02
2.999728731909190871e-01
7.074389205645807976e-01
7.316448243689567255e-01
6.590271129558288310e-01
-2.600924363780196188e-03
-3.084114546888546207e-02
4.177656594424236647e-02
-1.115274914834719355e-01
-2.164197413024343541e-01
-2.486942797082689338e-01
-9.135590497982531977e-02
1.345658638610168212e-01
1.587717676653927490e-01
2.757669693865431593e-01
5.743064496405131392e-01
5.823750842419717078e-01
4.936201036259266206e-01
3.282130942960243547e-01
4.008308057091521936e-01
3.120758250931070510e-01
2.596297001836258556e-01
2.233208444770619361e-01
-3.253463084221260848e-01
-4.584787793461937433e-01
-4.665474139476524229e-01
-4.504101447447351192e-01
-4.786503658498403868e-01
-6.117828367739081008e-01
-5.472337599622388860e-01
-3.858610679330659599e-01
-1.034588568820132837e-01
-9.135590497982531977e-02
-5.908136657399072622e-02
-3.084114546888546207e-02
-1.680079336936824708e-01
-2.043167894002463902e-01
-1.438020298893065152e-01
-9.942453958128395775e-02
-1.559049817914945069e-01
-1.841452028965997467e-01
-1.760765682951411226e-01
-2.486942797082689338e-01
-3.818267506323366201e-01
-4.383071928425471553e-01
-3.858610679330659599e-01
-3.374492603243140487e-01
-2.890374527155621931e-01
-9.942453958128395775e-02
-2.600924363780196188e-03
5.467710237678451331e-03
7.405110435007696001e-02
7.405110435007696001e-02
4.581088324497168546e-02
2.563929674132506970e-02
1.757066213986642131e-02
-1.720422509944117828e-01
-9.135590497982531977e-02
2.563929674132506970e-02
2.967361404205439215e-02
1.433392936949127571e-03
-5.908136657399072622e-02
-2.277251086742681369e-02
-2.446599624075396218e-01
-2.850031354148328533e-01
-1.034588568820132837e-01
9.422269085372357578e-02
7.405110435007696001e-02
-1.470387626596816703e-02
1.587717676653927490e-01
1.224629119588288434e-01
1.507031330639340971e-01
6.598246974861830816e-02
-1.316990779871185513e-01
-1.316990779871185513e-01
-6.715000117544937808e-02
-1.195961260849305874e-01
7.001678704934763409e-02
2.112178925748739444e-01
1.789433541690393648e-01
2.878699212887311232e-01
3.161101423938363908e-01
3.362817288974829788e-01
2.233208444770619361e-01
2.475267482814378639e-01
2.152522098756032842e-01
7.001678704934763409e-02
-1.873819356669749123e-02
-1.195961260849305874e-01
-3.172776738206674607e-01
-2.043167894002463902e-01
-1.841452028965997467e-01
-7.118431847617870400e-02
1.386001811617461332e-01
-2.600924363780196188e-03
9.422269085372357578e-02
5.467710237678451331e-03
4.581088324497168546e-02
8.615405625226492392e-02
-3.890978007034411046e-02
3.370793134278371461e-02
-3.084114546888546207e-02
-1.639736163929531310e-01
-1.195961260849305874e-01
-4.294409737107342945e-02
-3.084114546888546207e-02
-7.118431847617870400e-02
0.000000000000000000e+00
0.000000000000000000e+00
0.000000000000000000e+00
0.000000000000000000e+00
0.000000000000000000e+00
0.000000000000000000e+00
0.000000000000000000e+00
0.000000000000000000e+00
0.000000000000000000e+00
0.000000000000000000e+00
0.000000000000000000e+00
0.000000000000000000e+00
0.000000000000000000e+00
0.000000000000000000e+00
0.000000000000000000e+00
0.000000000000000000e+00
0.000000000000000000e+00
0.000000000000000000e+00
0.000000000000000000e+00
0.000000000000000000e+00
0.000000000000000000e+00
0.000000000000000000e+00
0.000000000000000000e+00
0.000000000000000000e+00
0.000000000000000000e+00
0.000000000000000000e+00
0.000000000000000000e+00
0.000000000000000000e+00
0.000000000000000000e+00
0.000000000000000000e+00
0.000000000000000000e+00
0.000000000000000000e+00
0.000000000000000000e+00
0.000000000000000000e+00
0.000000000000000000e+00
0.000000000000000000e+00
0.000000000000000000e+00
0.000000000000000000e+00
0.000000000000000000e+00
0.000000000000000000e+00
0.000000000000000000e+00
0.000000000000000000e+00
0.000000000000000000e+00
0.000000000000000000e+00
0.000000000000000000e+00
0.000000000000000000e+00
0.000000000000000000e+00
0.000000000000000000e+00
0.000000000000000000e+00
0.000000000000000000e+00
0.000000000000000000e+00
0.000000000000000000e+00
0.000000000000000000e+00
0.000000000000000000e+00
0.000000000000000000e+00
0.000000000000000000e+00
0.000000000000000000e+00
0.000000000000000000e+00
0.000000000000000000e+00
0.000000000000000000e+00
0.000000000000000000e+00
0.000000000000000000e+00
0.000000000000000000e+00
0.000000000000000000e+00
0.000000000000000000e+00
0.000000000000000000e+00
0.000000000000000000e+00
0.000000000000000000e+00
0.000000000000000000e+00
0.000000000000000000e+00
0.000000000000000000e+00
0.000000000000000000e+00
0.000000000000000000e+00
0.000000000000000000e+00
0.000000000000000000e+00
0.000000000000000000e+00
0.000000000000000000e+00
0.000000000000000000e+00
0.000000000000000000e+00
0.000000000000000000e+00
0.000000000000000000e+00
0.000000000000000000e+00
0.000000000000000000e+00
0.000000000000000000e+00
0.000000000000000000e+00
0.000000000000000000e+00
0.000000000000000000e+00
0.000000000000000000e+00
0.000000000000000000e+00
0.000000000000000000e+00
0.000000000000000000e+00
0.000000000000000000e+00
0.000000000000000000e+00
0.000000000000000000e+00
0.000000000000000000e+00
0.000000000000000000e+00
0.000000000000000000e+00
0.000000000000000000e+00
0.000000000000000000e+00
0.000000000000000000e+00
0.000000000000000000e+00
0.000000000000000000e+00
0.000000000000000000e+00
0.000000000000000000e+00
0.000000000000000000e+00
0.000000000000000000e+00
0.000000000000000000e+00
0.000000000000000000e+00
0.000000000000000000e+00
0.000000000000000000e+00
0.000000000000000000e+00
0.000000000000000000e+00
0.000000000000000000e+00
0.000000000000000000e+00
0.000000000000000000e+00
0.000000000000000000e+00
0.000000000000000000e+00
0.000000000000000000e+00
0.000000000000000000e+00
0.000000000000000000e+00
0.000000000000000000e+00
0.000000000000000000e+00
0.000000000000000000e+00
0.000000000000000000e+00
0.000000000000000000e+00
0.000000000000000000e+00
0.000000000000000000e+00
6.630614302565581708e-01
4.613455652200920132e-01
5.339632766332198521e-01
5.460662285354078715e-01
5.178260074303026039e-01
1.155248140945535740e+00
1.304517881072520646e+00
3.846935365062348899e-01
-1.518706644907651671e-01
-3.656894814294193163e-01
-1.321822681702269131e+00
-1.527572864039464573e+00
-1.305685412499351772e+00
-8.820820959227727576e-01
-6.965035000892239037e-01
-3.576208468279606922e-01
-1.881795201973290865e-01
-4.181356063389005118e-01
-1.155618087842012615e-01
8.211973895153559799e-02
2.959385558901897473e-01
4.129337576113401576e-01
4.532769306186333891e-01
4.855514690244679410e-01
2.555953828828965158e-01
4.129337576113401576e-01
1.466688157632047851e-01
-4.302385582410884757e-01
-1.881795201973290865e-01
-1.801108855958704347e-01
9.825700815445290170e-02
6.194815244788898223e-02
7.001678704934763409e-02
6.388555264521822430e-01
1.910463060712273287e-01
6.598246974861830816e-02
-4.625130966469230831e-01
-1.059592057154862932e+00
-1.160449989673095983e+00
-1.511435594836547214e+00
-9.869743457417351484e-01
-4.100669717374418877e-01
1.757066213986642131e-02
6.106153053470769754e-01
1.647434851634513198e+00
2.732666205530700942e+00
3.587941473285317429e+00
3.398328560151039568e+00
