0.000000000000000000e+00
0.000000000000000000e+00
0.000000000000000000e+00
0.000000000000000000e+00
0.000000000000000000e+00
0.000000000000000000e+00
0.000000000000000000e+00
0.000000000000000000e+00
0.000000000000000000e+00
0.000000000000000000e+00
0.000000000000000000e+00
0.000000000000000000e+00
0.000000000000000000e+00
0.000000000000000000e+00
0.000000000000000000e+00
0.000000000000000000e+00
0.000000000000000000e+00
0.000000000000000000e+00
0.000000000000000000e+00
0.000000000000000000e+00
0.000000000000000000e+00
0.000000000000000000e+00
0.000000000000000000e+00
0.000000000000000000e+00
0.000000000000000000e+00
0.000000000000000000e+00
0.000000000000000000e+00
0.000000000000000000e+00
0.000000000000000000e+00
0.000000000000000000e+00
0.000000000000000000e+00
0.000000000000000000e+00
0.000000000000000000e+00
0.000000000000000000e+00
0.000000000000000000e+00
0.000000000000000000e+00
0.000000000000000000e+00
0.000000000000000000e+00
0.000000000000000000e+00
0.000000000000000000e+00
0.000000000000000000e+00
0.000000000000000000e+00
0.000000000000000000e+00
0.000000000000000000e+00
0.000000000000000000e+00
0.000000000000000000e+00
0.000000000000000000e+00
0.000000000000000000e+00
0.000000000000000000e+00
0.000000000000000000e+00
0.000000000000000000e+00
0.000000000000000000e+00
0.000000000000000000e+00
0.000000000000000000e+00
0.000000000000000000e+00
0.000000000000000000e+00
0.000000000000000000e+00
0.000000000000000000e+00
0.000000000000000000e+00
0.000000000000000000e+00
0.000000000000000000e+00
0.000000000000000000e+00
0.000000000000000000e+00
0.000000000000000000e+00
0.000000000000000000e+00
0.000000000000000000e+00
0.000000000000000000e+00
0.000000000000000000e+00
0.000000000000000000e+00
0.000000000000000000e+00
0.000000000000000000e+00
0.000000000000000000e+00
0.000000000000000000e+00
0.000000000000000000e+00
0.000000000000000000e+00
0.000000000000000000e+00
0.000000000000000000e+00
0.000000000000000000e+00
0.000000000000000000e+00
0.000000000000000000e+00
0.000000000000000000e+00
0.000000000000000000e+00
0.000000000000000000e+00
0.000000000000000000e+00
0.000000000000000000e+00
0.000000000000000000e+00
0.000000000000000000e+00
0.000000000000000000e+00
0.000000000000000000e+00
0.000000000000000000e+00
0.000000000000000000e+00
0.000000000000000000e+00
0.000000000000000000e+00
0.000000000000000000e+00
0.000000000000000000e+00
0.000000000000000000e+00
0.000000000000000000e+00
0.000000000000000000e+00
0.000000000000000000e+00
0.000000000000000000e+00
0.000000000000000000e+00
0.000000000000000000e+00
0.000000000000000000e+00
0.000000000000000000e+00
0.000000000000000000e+00
0.000000000000000000e+00
0.000000000000000000e+00
0.000000000000000000e+00
0.000000000000000000e+00
0.000000000000000000e+00
0.000000000000000000e+00
0.000000000000000000e+00
0.000000000000000000e+00
0.000000000000000000e+00
0.000000000000000000e+00
0.000000000000000000e+00
0.000000000000000000e+00
0.000000000000000000e+00
0.000000000000000000e+00
0.000000000000000000e+00
0.000000000000000000e+00
0.000000000000000000e+00
0.000000000000000000e+00
0.000000000000000000e+00
0.000000000000000000e+00
0.000000000000000000e+00
0.000000000000000000e+00
0.000000000000000000e+00
0.000000000000000000e+00
0.000000000000000000e+00
0.000000000000000000e+00
0.000000000000000000e+00
0.000000000000000000e+00
0.000000000000000000e+00
0.000000000000000000e+00
0.000000000000000000e+00
0.000000000000000000e+00
0.000000000000000000e+00
0.000000000000000000e+00
-1.635432750418399417e+00
-1.368521075802133558e+00
-8.361174695196881279e-01
-7.282170053131125087e-01
-8.148213252683903507e-01
-6.756865161599111547e-01
-1.986528849308400180e-01
-3.254295977071703511e-02
5.907241953172658322e-01
1.239546723506806059e+00
1.147263431751182061e+00
1.135905488150489973e+00
8.278212679817148478e-01
-8.081422007365875182e-02
2.708624413291686392e-02
8.093646096305900928e-01
1.286398240859661257e+00
7.085628601744471400e-01
-1.191472797259948285e-01
-5.422306788517781140e-01
-1.022103795981022412e+00
-9.411784478260907250e-01
-5.479096506521242693e-01
-3.321087222389730309e-01
1.520236237405307445e-01
5.126383330625071677e-01
3.039361193997885402e-01
1.662210532413959385e-01
2.088133417439915762e-01
3.735035239540280827e-01
5.467121638645836557e-01
6.560323710212457859e-01
6.617113428215919413e-01
4.018983829557585263e-01
3.593060944531628609e-01
4.075773547561046262e-01
3.294914925013459062e-01
1.211151864505075615e+00
2.676326588994365707e+00
2.224848330866851853e+00
9.797337636409726436e-01
4.544288721089598249e-01
-8.815492439224568155e-01
-1.357163132201441469e+00
-1.428150279705767467e+00
-1.784505760177484301e+00
-1.865431108332415988e+00
-1.091671200535262010e+00
2.329489718954624589e-01
4.132563265564506705e-01
3.351704643016920060e-01
-3.179112927381078091e-01
-7.892659521668329292e-01
-4.556263588965003275e-01
-1.674185400289365522e-01
1.449249089900981335e-01
2.698622885977119967e-01
1.364064512895790116e-01
-5.809833287227441495e-02
2.002948840434724542e-01
1.946159122431263822e-01
1.288881463205165251e-02
7.312787473758314283e-01
1.174238547802826105e+00
8.178830673311091592e-01
4.544288721089598249e-01
1.761592538920015993e-01
-2.554426029343008775e-01
8.775122712347430687e-01
3.435889067290654353e+00
3.633233337352680614e+00
1.610099633479388226e+00
-8.517346419706398608e-01
-2.015923861041587273e+00
-2.235984018304998155e+00
-2.987028038900767957e+00
-4.085909082267735748e+00
-4.846891303514111016e+00
-3.533629074684078830e+00
-1.923640569285963275e+00
-1.235065238494000628e+00
-1.074634285134223655e+00
-8.503148990205533497e-01
9.097467688681032394e-02
3.621455803533358830e-01
7.781302647286866270e-01
1.135905488150489973e+00
1.239546723506806059e+00
1.578865288577484760e+00
1.506458398123072140e+00
1.459606880770216941e+00
1.488001739771947385e+00
1.425533049968140231e+00
1.470964824370909252e+00
1.794666216990635998e+00
1.923862825448509506e+00
1.216830836305421659e+00
4.696264543412816128e-02
7.209842831705566557e-03
5.935636812174388544e-01
5.055396183120746123e-01
2.897386898989233184e-01
-1.503816246278983082e-01
9.239441983689684890e-02
1.577025955408768165e-01
-6.174770552063637563e-01
-1.276237784046509782e+00
-1.264879840445817472e+00
-1.006486623530070679e+00
-1.314570843698845914e+00
-1.351484160401095425e+00
-9.667338209276481464e-01
3.209730348008267842e-01
1.015227337393135754e+00
6.489336562708132305e-01
1.155781889451701350e+00
6.333164838198614977e-01
-4.059353556434721066e-01
-2.852572048861178322e-01
-5.663663090032490244e-01
-2.895164337363773654e-01
-5.525884697210137197e-02
-4.243920139945968617e-01
-2.369859445831760947e-01
1.449249089900981335e-01
4.615275868593924358e-01
6.049216248181310540e-01
7.312787473758314283e-01
5.751070228663140993e-01
-1.148880508757352675e-01
-5.976006539051524902e-01
-3.860589543422607850e-01
-6.103783404559312009e-01
-5.890821962046333127e-01
-5.951807582236093991e-02
1.009128775374159709e-01
2.045541128937320152e-01
4.270341658386860029e-02
-2.597018317845604662e-01
-5.635268231030760022e-01
-5.621070801529894911e-01
-1.787764836296287241e-01
-4.442684152958081834e-01
-6.174770552063637563e-01
-6.856247168105168432e-01
-1.032041996631628100e+00
-3.903181831925203737e-01
2.443069154961546308e-01
2.031343699436455041e-01
5.552306215651028332e-01
7.852289794791191824e-01
7.554143775273022277e-01
7.142418319747931843e-01
8.387596213637771303e-02
-3.477258946899247638e-01
-5.365517070514320697e-01
-4.499473870961542277e-01
-4.499473870961542277e-01
-8.091423534680441954e-01
-7.069208610618146205e-01
-3.179112927381078091e-01
-1.674185400289365522e-01
-1.887146842802343849e-01
1.236287647388003147e-01
1.875171974926937712e-01
2.159120564944241871e-01
3.096150912001345845e-01
3.181335489006537065e-01
3.380099502018650282e-01
3.692442951037685495e-01
4.586881009592193581e-01
2.798004892483176298e-01
2.400476866458950698e-01
3.039361193997885402e-01
2.798004892483176298e-01
2.868992039987502407e-01
3.181335489006537065e-01
2.996768905495289514e-01
3.110348341502211511e-01
3.110348341502211511e-01
2.116528276441646261e-01
2.116528276441646261e-01
1.860974545426072602e-01
1.534433666906172555e-01
1.577025955408768165e-01
1.818382256923476714e-01
1.491841378403576945e-01
1.349867083394924727e-01
1.690605391415689884e-01
1.264682506389733507e-01
9.239441983689684890e-02
6.257981788507989418e-02
7.209842831705566557e-03
1.530871031359481689e-03
2.566650118283034243e-02
4.838238838421467930e-02
8.529570508646423799e-02
1.136905640881946677e-01
7.535750443585859104e-02
3.134547298317642838e-02
1.004932873187860953e-02
-5.567843719073125100e-03
-5.809833287227441495e-02
-1.163077938258217925e-01
-4.816013222166876800e-02
-7.513524827331266587e-02
-1.958133990306669958e-01
-2.213687721322243618e-01
-1.887146842802343849e-01
-2.185292862320513119e-01
-3.207507786382808312e-01
-3.548246094403573747e-01
-3.306889792888865198e-01
-2.455044022836952167e-01
-1.958133990306669958e-01
-1.631593111786769912e-01
-8.507344892391832669e-02
-2.728357818900082124e-03
-1.124681551941920932e-02
-4.816013222166876800e-02
-1.432829098774656973e-01
-2.029121137810995790e-01
-1.276657374265139644e-01
-1.447026528275522084e-01
-1.447026528275522084e-01
-1.234065085762543895e-01
-1.120485649755622315e-01
-7.797473417348571578e-02
-3.112321682063051015e-02
1.111280812729603911e-04
4.696264543412816128e-02
1.004932873187860953e-02
-9.927087842478353463e-02
-1.148880508757352675e-01
-1.347644521769465753e-01
-1.589000823284174302e-01
-1.035301072750430956e-01
-8.507344892391832669e-02
-4.106141747123615710e-02
-4.106141747123615710e-02
-5.099961812184181098e-02
0.000000000000000000e+00
0.000000000000000000e+00
0.000000000000000000e+00
0.000000000000000000e+00
0.000000000000000000e+00
0.000000000000000000e+00
0.000000000000000000e+00
0.000000000000000000e+00
0.000000000000000000e+00
0.000000000000000000e+00
0.000000000000000000e+00
0.000000000000000000e+00
0.000000000000000000e+00
0.000000000000000000e+00
0.000000000000000000e+00
0.000000000000000000e+00
0.000000000000000000e+00
0.000000000000000000e+00
0.000000000000000000e+00
0.000000000000000000e+00
0.000000000000000000e+00
0.000000000000000000e+00
0.000000000000000000e+00
0.000000000000000000e+00
0.000000000000000000e+00
0.000000000000000000e+00
0.000000000000000000e+00
0.000000000000000000e+00
0.000000000000000000e+00
0.000000000000000000e+00
0.000000000000000000e+00
0.000000000000000000e+00
0.000000000000000000e+00
0.000000000000000000e+00
0.000000000000000000e+00
0.000000000000000000e+00
0.000000000000000000e+00
0.000000000000000000e+00
0.000000000000000000e+00
0.000000000000000000e+00
0.000000000000000000e+00
0.000000000000000000e+00
0.000000000000000000e+00
0.000000000000000000e+00
0.000000000000000000e+00
0.000000000000000000e+00
0.000000000000000000e+00
0.000000000000000000e+00
0.000000000000000000e+00
0.000000000000000000e+00
0.000000000000000000e+00
0.000000000000000000e+00
0.000000000000000000e+00
0.000000000000000000e+00
0.000000000000000000e+00
0.000000000000000000e+00
0.000000000000000000e+00
0.000000000000000000e+00
0.000000000000000000e+00
0.000000000000000000e+00
0.000000000000000000e+00
0.000000000000000000e+00
0.000000000000000000e+00
0.000000000000000000e+00
0.000000000000000000e+00
0.000000000000000000e+00
0.000000000000000000e+00
0.000000000000000000e+00
0.000000000000000000e+00
0.000000000000000000e+00
0.000000000000000000e+00
0.000000000000000000e+00
0.000000000000000000e+00
0.000000000000000000e+00
0.000000000000000000e+00
0.000000000000000000e+00
0.000000000000000000e+00
0.000000000000000000e+00
0.000000000000000000e+00
-6.117980834060177120e-01
-3.548246094403573747e-01
-1.219867656261678784e-01
7.251801853568554113e-02
1.043622196394865975e+00
1.358805131314073877e+00
6.858469729730627407e-01
-7.168590617124203090e-01
-1.746172700525148169e+00
-2.304131679909151131e+00
-2.088330751495999671e+00
-1.496297941309920443e+00
-8.219200400188229061e-01
7.251801853568554113e-02
-6.803653352288006884e-02
9.513389046392421999e-01
4.627053402413245919e+00
4.794583070523454893e+00
6.830074870728897185e-01
-1.722037070373677370e+00
-2.704499191833550142e+00
-2.593759241726801168e+00
-2.149379698349719980e+00
-1.621235320917534306e+00
-1.348644674500922402e+00
-2.057096406594096205e+00
-1.798703189678349412e+00
-1.030622253681541478e+00
-2.118501617002485973e-02
6.858469729730627407e-01
7.994264089799844042e-01
1.110350115048932551e+00
1.299175927410439968e+00
1.506458398123072140e+00
1.747814699637780800e+00
1.517816341723764451e+00
1.072017055396596419e+00
8.505371551830991361e-01
8.704135564843105133e-01
7.369577191761774726e-01
7.483156627768696723e-01
7.667723211279944273e-01
1.122708211381081428e-01
-7.665500649654486409e-01
-9.397587048760042139e-01
-1.645790541287635023e-01
2.457266584462411418e-01
3.649850662535089607e-01
9.044873872863870012e-01
1.076276284246856063e+00
1.035103738694346909e+00
1.211151864505075615e+00
8.704135564843105133e-01
-1.021103643249565707e-01
-4.442684152958081834e-01
-7.807474944663137517e-01
-1.344385445650662758e+00
-1.528952029161910309e+00
-8.602530996711590383e-01
1.520236237405307445e-01
1.491841378403576945e-01
1.804184827422611603e-01
2.897386898989233184e-01
9.381416278698335998e-02
-2.781584901356852213e-01
-3.051336061873290983e-01
7.251801853568554113e-02
2.840597180985772185e-01
1.292077212660007302e+00
2.795584996801633526e+00
2.395217484877234515e+00
9.513389046392421999e-01
4.885027029110363128e-01
1.477643948902711835e-01
9.882522213414917100e-01
2.925781757990963405e-01
-1.784505760177484301e+00
-2.620734357778445212e+00
-3.486777557331223409e+00
-3.209927682064352084e+00
-2.859251173392980849e+00
-1.819999333929647189e+00
-9.738325356780807018e-01
-6.529706289585267553e-01
3.276521593326294640e-02
2.457266584462411418e-01
7.852289794791191824e-01
2.584043297238741932e+00
3.979650617173791982e+00
3.126385104171792495e+00
1.549050686625667916e+00
-3.633430671408764967e-01
-1.635432750418399417e+00
-1.998886945640548918e+00
-1.440927966256546178e+00
-6.984024033612954430e-01
-7.708092938157081742e-01
-4.442684152958081834e-01
-2.809979760358582435e-01
-1.617395682285904801e-01
7.535750443585859104e-02
7.667723211279944273e-01
8.320804968319743811e-01
4.288734990074024589e-01
5.807859946666602546e-01
5.694280510659680550e-01
4.132563265564506705e-01
2.868992039987502407e-01
3.905404393550663822e-01
5.168975619127667009e-01
4.615275868593924358e-01
-2.142700573817917509e-01
-4.130340703939047176e-01
-1.546408534781578692e-01
-1.205670226760813535e-01
-3.548246094403573747e-01
-3.207507786382808312e-01
4.189352983567967703e-01
2.201712853446837481e-01
-2.880966907862908544e-01
-2.966151484868099764e-01
-3.321087222389730309e-01
-4.385894434954620835e-01
-3.235902645384539089e-01
1.714804348231121697e-02
3.692442951037685495e-01
4.075773547561046262e-01
-4.130340703939047176e-01
-6.842049738604302211e-01
-5.237740205006533589e-01
2.343687148455489699e-01
1.035103738694346909e+00
7.213405467252258507e-01
7.085628601744471400e-01
4.757250163602576576e-01
-3.448864087897517416e-01
-6.799457450101706879e-01
-4.641448165970194495e-01
-4.215525280944238395e-01
-5.905019391547198238e-01
-4.442684152958081834e-01
-5.763045096538546019e-01
-6.998221463113819540e-01
-4.187130421942507619e-01
-1.276657374265139644e-01
8.103647623620467699e-02
4.270341658386860029e-02
4.757250163602576576e-01
2.043121233255777103e+00
2.852374714805094413e+00
1.368743331964679566e+00
-3.732812677914821298e-01
-1.590000976015630840e+00
-2.089750494446086293e+00
-1.896665453234319454e+00
-1.276237784046509782e+00
-4.755027601977116491e-01
2.424675823274382094e-02
1.690605391415689884e-01
-3.406271799394921529e-01
-6.984024033612954430e-01
-6.245757699567964227e-01
-2.284674868826569727e-01
1.179497929384542287e-01
1.506038807904442056e-01
1.946159122431263822e-01
2.017146269935589931e-01
2.230107712448567980e-01
3.337507213516054394e-01
4.941816747113824126e-01
5.807859946666602546e-01
7.170813178749662065e-01
6.830074870728897185e-01
4.757250163602576576e-01
3.564666085529897832e-01
2.627635738472793858e-01
1.719000250417420383e-01
1.591223384909633554e-01
1.406656801398385725e-01
1.165300499883677038e-01
4.838238838421467930e-02
5.790099881619045936e-03
1.856778643239773846e-02
-6.987586669159645721e-03
3.134547298317642838e-02
1.146907168196513102e-02
1.111280812729603911e-04
2.140727233257078144e-02
5.832058903482033319e-02
1.065918493377620568e-01
7.535750443585859104e-02
5.974033198490685120e-02
7.251801853568554113e-02
7.677724738594510212e-02
7.819699033603162708e-02
7.535750443585859104e-02
1.065918493377620568e-01
8.387596213637771303e-02
3.276521593326294640e-02
6.825878968542598013e-02
1.023326204875024958e-01
5.122187428438772228e-02
-6.987586669159645721e-03
-3.112321682063051015e-02
-8.407329619246168076e-03
6.116007493499337616e-02
9.949313458732944593e-02
9.239441983689684890e-02
1.136905640881946677e-01
1.832579686424342102e-01
1.449249089900981335e-01
1.998752938248425995e-02
-2.260475912011138122e-02
-4.674038927158224305e-02
-7.229576237313962983e-02
-5.383910402201485396e-02
-7.087601942305310487e-02
-8.649319187400483777e-02
-1.006906213748700596e-01
-1.858751983800613350e-01
-2.043318567311861178e-01
-2.043318567311861178e-01
-2.213687721322243618e-01
-2.000726278809265568e-01
-2.185292862320513119e-01
-1.361841951270330864e-01
-1.021103643249565707e-01
-1.816159695298017740e-01
-1.404434239772926474e-01
-1.219867656261678784e-01
-1.305052233266870143e-01
-1.305052233266870143e-01
-1.347644521769465753e-01
-6.945627647296657992e-02
-1.124681551941920932e-02
1.714804348231121697e-02
-2.544424502028442420e-02
-9.785113547469700968e-02
-1.248262515263409145e-01
-7.655499122339919083e-02
-6.519704762270701892e-02
-4.390090337140920007e-02
-1.834553026985181676e-02
-4.106141747123615710e-02
-9.643139252461048472e-02
-1.120485649755622315e-01
-1.106288220254757065e-01
-8.081422007365875182e-02
-6.803653352288006884e-02
-9.075242072426439877e-02
-3.396270272080355312e-02
-7.371550532322615479e-02
-1.177275367759083036e-01
-9.501164957452397364e-02
-5.809833287227441495e-02
-4.674038927158224305e-02
-3.538244567089007808e-02
8.629585781792088045e-03
4.980213133430120426e-02
0.000000000000000000e+00
0.000000000000000000e+00
0.000000000000000000e+00
0.000000000000000000e+00
0.000000000000000000e+00
0.000000000000000000e+00
0.000000000000000000e+00
0.000000000000000000e+00
0.000000000000000000e+00
0.000000000000000000e+00
0.000000000000000000e+00
0.000000000000000000e+00
0.000000000000000000e+00
0.000000000000000000e+00
0.000000000000000000e+00
0.000000000000000000e+00
0.000000000000000000e+00
0.000000000000000000e+00
0.000000000000000000e+00
0.000000000000000000e+00
0.000000000000000000e+00
0.000000000000000000e+00
0.000000000000000000e+00
0.000000000000000000e+00
0.000000000000000000e+00
0.000000000000000000e+00
0.000000000000000000e+00
0.000000000000000000e+00
0.000000000000000000e+00
0.000000000000000000e+00
0.000000000000000000e+00
0.000000000000000000e+00
0.000000000000000000e+00
0.000000000000000000e+00
0.000000000000000000e+00
0.000000000000000000e+00
0.000000000000000000e+00
0.000000000000000000e+00
0.000000000000000000e+00
0.000000000000000000e+00
0.000000000000000000e+00
0.000000000000000000e+00
0.000000000000000000e+00
0.000000000000000000e+00
0.000000000000000000e+00
0.000000000000000000e+00
0.000000000000000000e+00
0.000000000000000000e+00
0.000000000000000000e+00
0.000000000000000000e+00
0.000000000000000000e+00
0.000000000000000000e+00
0.000000000000000000e+00
0.000000000000000000e+00
0.000000000000000000e+00
0.000000000000000000e+00
0.000000000000000000e+00
0.000000000000000000e+00
0.000000000000000000e+00
0.000000000000000000e+00
0.000000000000000000e+00
0.000000000000000000e+00
0.000000000000000000e+00
0.000000000000000000e+00
0.000000000000000000e+00
0.000000000000000000e+00
0.000000000000000000e+00
0.000000000000000000e+00
0.000000000000000000e+00
0.000000000000000000e+00
0.000000000000000000e+00
0.000000000000000000e+00
0.000000000000000000e+00
0.000000000000000000e+00
0.000000000000000000e+00
0.000000000000000000e+00
0.000000000000000000e+00
0.000000000000000000e+00
0.000000000000000000e+00
0.000000000000000000e+00
0.000000000000000000e+00
0.000000000000000000e+00
0.000000000000000000e+00
0.000000000000000000e+00
0.000000000000000000e+00
0.000000000000000000e+00
0.000000000000000000e+00
-2.824177189859447545e-01
7.128220890247066732e-01
9.229440456375117563e-01
1.307274794892329117e-01
-1.021103643249565707e-01
-6.987586669159645721e-03
1.090473713747721174e+00
3.701380998956833590e+00
3.061076928467812763e+00
-2.781584901356852213e-01
-2.145120469499460558e+00
-3.420049638677157056e+00
-3.721035144095499625e+00
-2.952954208098691691e+00
-1.896665453234319454e+00
-1.507655884910612532e+00
-1.961973628938299408e+00
-1.561606117013900397e+00
-2.455044022836952167e-01
6.191190543189962758e-01
3.905404393550663822e-01
6.389954556202075420e-01
1.202633406804556548e+00
1.886949508746259996e+00
2.522994350385021622e+00
2.372501597675850338e+00
1.702382925235012223e+00
1.037943224594519931e+00
6.333164838198614977e-01
4.217747842569698480e-01
3.380099502018650282e-01
1.449249089900981335e-01
-2.000726278809265568e-01
1.875171974926937712e-01
9.044873872863870012e-01
6.730692864222841409e-01
2.613438308971928747e-01
3.096150912001345845e-01
2.343687148455489699e-01
-9.217216367435092372e-02
1.889369404427802823e-01
3.862812105048067934e-01
1.286398240859661257e+00
2.334168538023514206e+00
1.395718448016323388e+00
1.719000250417420383e-01
-1.161238605089501608e+00
-2.542648495523686769e+00
-2.859251173392980849e+00
-2.448945460817976372e+00
-1.912282625685271187e+00
-1.432409508556027111e+00
-1.404014649554296668e+00
-9.454376766763502582e-01
-1.234065085762543895e-01
2.542451161467602638e-01
3.962194111554124265e-01
4.885027029110363128e-01
9.697955629903669550e-01
8.917097007356082905e-01
1.598741689878696137e+00
2.615277642140645398e+00
2.302934193121610740e+00
1.303435156260699390e+00
1.165300499883677038e-01
9.381416278698335998e-02
6.673903146219379856e-01
3.564666085529897832e-01
-5.791439955540277351e-01
-1.714938355623244703e+00
-1.736234499874542481e+00
-1.348644674500922402e+00
-1.091671200535262010e+00
-4.556263588965003275e-01
-8.223396302374527678e-02
3.152940630004806843e-01
-8.081422007365875182e-02
-2.341464586830030448e-01
2.187515423945972370e-01
-1.006906213748700596e-01
-1.077893361253026566e-01
1.179497929384542287e-01
5.353542202638915670e-01
1.966455113951105060e+00
2.338427766873773628e+00
1.307694385110959034e+00
5.751070228663140993e-01
-1.631593111786769912e-01
-1.284756241747028849e+00
-1.616976092067274662e+00
-1.068955313333877610e+00
-1.716777688791961132e-01
3.152940630004806843e-01
8.629585781792088045e-03
-3.832194684420877628e-01
-8.957466734233220373e-01
-7.537723784146699302e-01
-1.034881482531801122e+00
-1.528952029161910309e+00
-1.683704010721341238e+00
-1.499137427210093465e+00
-7.140195758122471759e-01
-8.361174695196881279e-01
-5.038976191994420928e-01
1.946159122431263822e-01
6.446744274205536973e-01
1.062078854745990952e+00
1.043622196394865975e+00
1.239546723506806059e+00
1.341768215913035522e+00
1.740715984887348133e+00
1.645593207231551336e+00
1.249484924157411747e+00
2.338427766873773628e+00
2.984410809163140499e+00
3.034101812416168720e+00
3.076694100918764274e+00
1.691024981634319913e+00
4.515893862087867472e-01
-7.338959771134585530e-01
-1.585741747165371196e+00
-1.239324467344260272e+00
-1.736234499874542481e+00
-2.524191837172562014e+00
-3.137520791609939241e+00
-3.117644390308727864e+00
-2.200490444552834823e+00
-1.653889408769524172e+00
-1.802962418528609057e+00
-1.923640569285963275e+00
-2.145120469499460558e+00
-2.172095585551104602e+00
-1.469322825258276399e+00
-1.591420718965717240e+00
-7.963646669172654846e-01
6.858469729730627407e-01
1.488001739771947385e+00
1.766271357988905555e+00
1.783308273389943910e+00
1.771950329789251599e+00
1.134485745200403350e+00
1.320472071661737745e+00
1.155781889451701350e+00
7.071431172243606289e-01
8.704135564843105133e-01
5.751070228663140993e-01
6.683904673533945517e-02
-3.306889792888865198e-01
-1.219867656261678784e-01
-3.832194684420877628e-01
-5.280332493509128922e-01
3.010966334996154625e-01
9.882522213414917100e-01
7.128220890247066732e-01
1.288881463205165251e-02
-1.901344272303208960e-01
-5.578478513027298469e-01
-6.288349988070559560e-01
-4.840212178982307711e-01
-4.499473870961542277e-01
-5.976006539051524902e-01
-5.933414250548929569e-01
-3.903181831925203737e-01
-6.519704762270701892e-02
8.387596213637771303e-02
1.856778643239773846e-02
1.491841378403576945e-01
4.416511855581811141e-01
5.935636812174388544e-01
5.907241953172658322e-01
5.807859946666602546e-01
5.225765337131128563e-01
5.410331920642376113e-01
5.467121638645836557e-01
4.757250163602576576e-01
3.919601823051528933e-01
3.692442951037685495e-01
3.294914925013459062e-01
2.798004892483176298e-01
3.039361193997885402e-01
2.372082007457220199e-01
2.230107712448567980e-01
2.286897430452028979e-01
1.761592538920015993e-01
1.619618243911363775e-01
4.714657875099980688e-01
1.026585280993827842e+00
9.158453308870792009e-01
4.686263016098250467e-01
1.676407961914824774e-01
-2.597018317845604662e-01
-4.144538133439912286e-01
-5.720452808035950687e-01
-6.728470302597381325e-01
-7.708092938157081742e-01
-1.088831714635088987e+00
-1.166917576889847652e+00
-7.282170053131125087e-01
-3.917379261426068848e-01
-2.455044022836952167e-01
-1.976527321993833824e-02
-2.728357818900082124e-03
8.103647623620467699e-02
7.535750443585859104e-02
1.572830053222469548e-02
3.702444478352251434e-02
1.572830053222469548e-02
4.838238838421467930e-02
-5.567843719073125100e-03
-1.550604436967877378e-02
-1.408630141959225229e-02
-5.383910402201485396e-02
-7.513524827331266587e-02
-7.513524827331266587e-02
-8.081422007365875182e-02
-8.507344892391832669e-02
-6.945627647296657992e-02
-9.643139252461048472e-02
-9.643139252461048472e-02
-9.217216367435092372e-02
-8.507344892391832669e-02
-9.359190662443744868e-02
-8.081422007365875182e-02
-8.507344892391832669e-02
-1.063695931752161455e-01
-8.933267777417788769e-02
-1.191472797259948285e-01
-1.248262515263409145e-01
-1.560605964282443803e-01
-1.290854803766004755e-01
-5.667858992218789693e-02
-4.816013222166876800e-02
1.288881463205165251e-02
2.992573003308990690e-02
-2.260475912011138122e-02
-2.970347387054398866e-02
-1.976527321993833824e-02
2.992573003308990690e-02
6.116007493499337616e-02
5.690084608473380823e-02
1.051721063876755319e-01
1.122708211381081428e-01
4.838238838421467930e-02
1.856778643239773846e-02
1.714804348231121697e-02
3.986393068369555731e-02
1.998752938248425995e-02
4.838238838421467930e-02
8.529570508646423799e-02
2.708624413291686392e-02
-6.093781877244745793e-02
-5.383910402201485396e-02
2.950613981446002961e-03
2.424675823274382094e-02
4.980213133430120426e-02
-1.308614868813560853e-03
1.146907168196513102e-02
3.702444478352251434e-02
5.790099881619045936e-03
1.856778643239773846e-02
0.000000000000000000e+00
0.000000000000000000e+00
0.000000000000000000e+00
0.000000000000000000e+00
0.000000000000000000e+00
0.000000000000000000e+00
0.000000000000000000e+00
0.000000000000000000e+00
0.000000000000000000e+00
0.000000000000000000e+00
0.000000000000000000e+00
0.000000000000000000e+00
0.000000000000000000e+00
0.000000000000000000e+00
0.000000000000000000e+00
0.000000000000000000e+00
0.000000000000000000e+00
0.000000000000000000e+00
0.000000000000000000e+00
0.000000000000000000e+00
0.000000000000000000e+00
0.000000000000000000e+00
0.000000000000000000e+00
0.000000000000000000e+00
0.000000000000000000e+00
0.000000000000000000e+00
0.000000000000000000e+00
0.000000000000000000e+00
0.000000000000000000e+00
0.000000000000000000e+00
0.000000000000000000e+00
0.000000000000000000e+00
0.000000000000000000e+00
0.000000000000000000e+00
0.000000000000000000e+00
0.000000000000000000e+00
0.000000000000000000e+00
0.000000000000000000e+00
0.000000000000000000e+00
0.000000000000000000e+00
0.000000000000000000e+00
0.000000000000000000e+00
0.000000000000000000e+00
0.000000000000000000e+00
0.000000000000000000e+00
0.000000000000000000e+00
0.000000000000000000e+00
0.000000000000000000e+00
0.000000000000000000e+00
0.000000000000000000e+00
0.000000000000000000e+00
0.000000000000000000e+00
0.000000000000000000e+00
0.000000000000000000e+00
0.000000000000000000e+00
0.000000000000000000e+00
0.000000000000000000e+00
0.000000000000000000e+00
0.000000000000000000e+00
0.000000000000000000e+00
0.000000000000000000e+00
0.000000000000000000e+00
0.000000000000000000e+00
0.000000000000000000e+00
0.000000000000000000e+00
0.000000000000000000e+00
0.000000000000000000e+00
0.000000000000000000e+00
0.000000000000000000e+00
0.000000000000000000e+00
0.000000000000000000e+00
0.000000000000000000e+00
0.000000000000000000e+00
0.000000000000000000e+00
2.996768905495289514e-01
4.132563265564506705e-01
-5.383910402201485396e-02
-1.460804367557757333e+00
-2.085491265595826871e+00
-6.898839456607763765e-01
1.185596491403518193e+00
2.241885246267890430e+00
1.118868572749451618e+00
-6.345139706074020003e-01
-7.211182905626798423e-01
-4.442684152958081834e-01
6.361559697200345198e-01
2.048800205056123147e+00
1.506458398123072140e+00
2.950613981446002961e-03
-1.653889408769524172e+00
-2.634931787279310544e+00
-2.515673379472042726e+00
-2.096849209196518959e+00
-4.414289293956351057e-01
2.414674295959815808e-01
4.980213133430120426e-02
-6.288349988070559560e-01
-1.692222468421860304e+00
-1.415372593154988756e+00
-4.982186473990959930e-01
1.228188779906113748e+00
1.333249758212516456e+00
6.318967408697749866e-01
8.377594686323205364e-01
3.152940630004806843e-01
3.152940630004806843e-01
2.783807462982311187e-01
1.832579686424342102e-01
1.349867083394924727e-01
1.988751410933859431e-01
6.744890293723706520e-01
5.935636812174388544e-01
-4.148100768986603612e-03
-5.308727352510859143e-01
2.954176616992693627e-01
3.522073797027302500e-01
-3.917379261426068848e-01
-2.270477439325704616e-01
-8.223396302374527678e-02
-4.130340703939047176e-01
-5.038976191994420928e-01
8.103647623620467699e-02
4.998606465117285125e-01
6.333164838198614977e-01
2.542451161467602638e-01
7.582538634274752498e-01
1.425533049968140231e+00
1.043622196394865975e+00
8.704135564843105133e-01
7.866487224292056935e-01
5.055396183120746123e-01
2.996768905495289514e-01
-3.037138632372425873e-01
-7.892659521668329292e-01
-6.146375693061907342e-01
-1.418631669273791862e-01
1.108930372098846151e+00
3.979650617173791982e+00
5.693280357928223623e+00
5.693280357928223623e+00
3.435889067290654353e+00
-8.020436387176116400e-01
-3.809059207000863978e+00
-4.871026933665581815e+00
-5.025778915225012966e+00
-3.533629074684078830e+00
-2.634931787279310544e+00
-2.200490444552834823e+00
-2.172095585551104602e+00
-1.819999333929647189e+00
-2.397834714614861529e+00
-2.264378877306728377e+00
-1.247842925044779339e+00
-9.667338209276481464e-01
2.002948840434724542e-01
9.797337636409726436e-01
1.185596491403518193e+00
1.090473713747721174e+00
4.615275868593924358e-01
9.949313458732944593e-02
8.235620391314553146e-01
1.404236905716842454e+00
2.294415735421091451e+00
2.464784889431474113e+00
1.517816341723764451e+00
2.321390851472735495e+00
2.202132443665467676e+00
1.761592538920015993e-01
-1.183954492290885785e+00
-1.513334856710958576e+00
-1.653889408769524172e+00
-1.553087659313381330e+00
-1.886727252583713765e+00
-2.108207152797211048e+00
-2.172095585551104602e+00
-1.964813114838472430e+00
-1.247842925044779339e+00
-6.160573122562772452e-01
1.931961692930398433e-01
1.116029086849278595e+00
1.526334799424283517e+00
1.401397419816669432e+00
1.425533049968140231e+00
1.118868572749451618e+00
1.030844509844087487e+00
1.442569965369178586e+00
1.774789815689424621e+00
1.581704774477657782e+00
8.420186974825800696e-01
6.541930378525294409e-02
-2.014923708310130679e-01
-4.243920139945968617e-01
-8.432161842701206833e-01
-2.738992612854256326e-01
-1.976527321993833824e-02
-2.483438881838682666e-01
-3.548246094403573747e-01
-5.365517070514320697e-01
-5.479096506521242693e-01
-4.215525280944238395e-01
-1.219867656261678784e-01
-1.106288220254757065e-01
-2.185292862320513119e-01
-2.057515996812726289e-01
-2.369859445831760947e-01
-2.710597753852526104e-01
1.530871031359481689e-03
3.593060944531628609e-01
3.039361193997885402e-01
3.039361193997885402e-01
4.657868157096519690e-01
4.317129849075754811e-01
3.820219816545472047e-01
2.443069154961546308e-01
2.059738558438185541e-01
2.499858872965007028e-01
1.548631096407037666e-01
7.109827558559901617e-02
-1.049498502251296206e-01
-3.112321682063051015e-02
-4.148100768986603612e-03
-6.377730467262049396e-02
-5.383910402201485396e-02
-1.262459944764274256e-01
-3.051336061873290983e-01
-7.580316072649294634e-01
-9.071046170240142370e-01
-6.984024033612954430e-01
-6.586496007588729107e-01
-8.772900150721972823e-01
-7.211182905626798423e-01
-1.872949413301478461e-01
1.917764263429533322e-01
2.144923135443376760e-01
1.577025955408768165e-01
3.294914925013459062e-01
1.449249089900981335e-01
-1.063695931752161455e-01
-1.986528849308400180e-01
-3.377876940393191307e-01
-1.730975118292826520e-01
-9.075242072426439877e-02
-7.939447712357224074e-02
-8.507344892391832669e-02
-1.674185400289365522e-01
3.560470183343598938e-02
3.152940630004806843e-01
3.380099502018650282e-01
4.799842452105171908e-01
5.353542202638915670e-01
4.402314426080946030e-01
4.132563265564506705e-01
3.195532918507402731e-01
4.075773547561046262e-01
3.763430098542011604e-01
3.365902072517785171e-01
3.025163764497019736e-01
2.812202321984041964e-01
2.585043449970198526e-01
1.747395109419150883e-01
2.230107712448567980e-01
1.946159122431263822e-01
1.704802820916555273e-01
1.534433666906172555e-01
9.665364868715640989e-02
2.992573003308990690e-02
1.572830053222469548e-02
-4.106141747123615710e-02
-1.092090790753891816e-01
-8.365370597383180173e-02
-9.501164957452397364e-02
-8.081422007365875182e-02
-1.063695931752161455e-01
-1.106288220254757065e-01
-1.049498502251296206e-01
-1.319249662767735254e-01
-7.655499122339919083e-02
-7.371550532322615479e-02
-1.333447092268600365e-01
-1.645790541287635023e-01
-1.461223957776387472e-01
-1.787764836296287241e-01
-1.617395682285904801e-01
-1.305052233266870143e-01
-1.901344272303208960e-01
-2.284674868826569727e-01
-1.872949413301478461e-01
-1.234065085762543895e-01
-1.716777688791961132e-01
-1.404434239772926474e-01
-1.276657374265139644e-01
-2.156898003318782897e-01
-1.901344272303208960e-01
-1.035301072750430956e-01
-9.217216367435092372e-02
-1.035301072750430956e-01
-4.390090337140920007e-02
0.000000000000000000e+00
0.000000000000000000e+00
0.000000000000000000e+00
0.000000000000000000e+00
0.000000000000000000e+00
0.000000000000000000e+00
0.000000000000000000e+00
0.000000000000000000e+00
0.000000000000000000e+00
0.000000000000000000e+00
0.000000000000000000e+00
0.000000000000000000e+00
0.000000000000000000e+00
0.000000000000000000e+00
0.000000000000000000e+00
0.000000000000000000e+00
0.000000000000000000e+00
0.000000000000000000e+00
0.000000000000000000e+00
0.000000000000000000e+00
0.000000000000000000e+00
0.000000000000000000e+00
0.000000000000000000e+00
0.000000000000000000e+00
0.000000000000000000e+00
0.000000000000000000e+00
0.000000000000000000e+00
0.000000000000000000e+00
0.000000000000000000e+00
0.000000000000000000e+00
0.000000000000000000e+00
0.000000000000000000e+00
0.000000000000000000e+00
0.000000000000000000e+00
0.000000000000000000e+00
0.000000000000000000e+00
0.000000000000000000e+00
0.000000000000000000e+00
0.000000000000000000e+00
0.000000000000000000e+00
0.000000000000000000e+00
0.000000000000000000e+00
0.000000000000000000e+00
0.000000000000000000e+00
0.000000000000000000e+00
0.000000000000000000e+00
0.000000000000000000e+00
0.000000000000000000e+00
0.000000000000000000e+00
0.000000000000000000e+00
0.000000000000000000e+00
0.000000000000000000e+00
0.000000000000000000e+00
0.000000000000000000e+00
0.000000000000000000e+00
0.000000000000000000e+00
0.000000000000000000e+00
0.000000000000000000e+00
0.000000000000000000e+00
0.000000000000000000e+00
0.000000000000000000e+00
0.000000000000000000e+00
0.000000000000000000e+00
0.000000000000000000e+00
0.000000000000000000e+00
0.000000000000000000e+00
0.000000000000000000e+00
0.000000000000000000e+00
0.000000000000000000e+00
0.000000000000000000e+00
0.000000000000000000e+00
0.000000000000000000e+00
0.000000000000000000e+00
0.000000000000000000e+00
0.000000000000000000e+00
0.000000000000000000e+00
0.000000000000000000e+00
0.000000000000000000e+00
0.000000000000000000e+00
0.000000000000000000e+00
0.000000000000000000e+00
0.000000000000000000e+00
0.000000000000000000e+00
0.000000000000000000e+00
0.000000000000000000e+00
0.000000000000000000e+00
0.000000000000000000e+00
0.000000000000000000e+00
0.000000000000000000e+00
-1.646790694019091728e+00
-1.825678305729993234e+00
-1.428150279705767467e+00
-1.172596548690193696e+00
-4.201327851443373285e-01
2.783807462982311187e-01
5.907241953172658322e-01
1.198374177954296904e+00
2.165219126963218166e+00
1.850036192044010264e+00
-6.217362840566232896e-01
-1.183954492290885785e+00
-1.044819683182406811e+00
-1.091671200535262010e+00
-3.519851235401843526e-01
-2.781584901356852213e-01
6.116007493499337616e-02
4.075773547561046262e-01
6.967853263551250509e-02
-9.217216367435092372e-02
4.870829599609498017e-01
9.002281584361274680e-01
8.959689295858678237e-01
8.235620391314553146e-01
8.036856378302439374e-01
4.047378688559315485e-01
7.677724738594510212e-02
9.967706790420108875e-01
1.967874856901191682e+00
8.377594686323205364e-01
-6.146375693061907342e-01
-1.520433571461391242e+00
-2.052837177743836783e+00
-1.507655884910612532e+00
-6.174770552063637563e-01
2.372082007457220199e-01
4.345524708077485032e-01
8.136238384808496260e-01
3.621455803533358830e-01
-1.163077938258217925e-01
5.790099881619045936e-03
6.399956083516641914e-02
4.714657875099980688e-01
1.054980139995558286e+00
1.488001739771947385e+00
1.124547544549797884e+00
8.420186974825800696e-01
2.031343699436455041e-01
1.946159122431263822e-01
7.554143775273022277e-01
7.781302647286866270e-01
7.852289794791191824e-01
8.704135564843105133e-01
3.522073797027302500e-01
-6.160573122562772452e-01
-1.239324467344260272e+00
-9.965484228794649901e-01
-2.118501617002485973e-02
-6.856247168105168432e-01
-1.144201689688463253e+00
-4.314907287450294726e-01
-7.282170053131125087e-01
-1.460804367557757333e+00
-1.616976092067274662e+00
-1.646790694019091728e+00
-9.071046170240142370e-01
1.134485745200403350e+00
4.736373609569907828e+00
5.693280357928223623e+00
5.693280357928223623e+00
4.994766826485654398e+00
1.395718448016323388e+00
-3.045237499854315466e+00
-3.692640285093768959e+00
-3.888564812205709043e+00
-3.525110616983559542e+00
-3.997885019362371395e+00
-3.004064954301806534e+00
-2.579561812225936279e+00
-3.171594622412015951e+00
-3.830355351252161533e+00
-3.905601727606747176e+00
-3.188631537813054084e+00
-3.282334572518764482e+00
-1.825678305729993234e+00
-1.183954492290885785e+00
9.949313458732944593e-02
9.513389046392421999e-01
1.682506523933800846e+00
2.927621091159679612e+00
3.220088138877502892e+00
3.627554365552334570e+00
3.242804026078887514e+00
3.076694100918764274e+00
5.071432945790326663e+00
5.693280357928223623e+00
3.318050402433473156e+00
-8.659320714715050826e-01
-2.805300941289693206e+00
-4.827014902212900083e+00
-3.997885019362371395e+00
-3.035299299203710000e+00
-1.541729715712689019e+00
6.116007493499337616e-02
3.465284079023841501e-01
-3.576640953405303969e-01
1.648013102913094274e-01
3.692442951037685495e-01
7.819699033603162708e-02
1.127387030449970906e+00
1.299175927410439968e+00
1.333249758212516456e+00
1.303435156260699390e+00
1.434051507668659520e+00
1.526334799424283517e+00
1.090473713747721174e+00
9.428204469387230224e-01
1.859974392694615952e+00
2.321390851472735495e+00
9.925114501917513543e-01
-2.728357818900082124e-03
-7.097603469619876426e-01
-1.037720968431974145e+00
1.974553981432994321e-01
-2.951954055367234653e-01
-1.405434392504383068e+00
-1.124325288387251875e+00
-1.469322825258276399e+00
-8.588333567210725272e-01
-1.106288220254757065e-01
-4.982186473990959930e-01
-9.993879087796381233e-01
-1.161238605089501608e+00
-1.235065238494000628e+00
-1.523273057361564264e+00
-1.243583696194519694e+00
-4.556263588965003275e-01
2.088133417439915762e-01
2.755412603980580966e-01
3.110348341502211511e-01
6.858469729730627407e-01
4.132563265564506705e-01
1.136905640881946677e-01
5.690084608473380823e-02
-2.582820888344738997e-01
-4.314907287450294726e-01
-6.004401398053255123e-01
-2.639610606348199995e-01
-2.625413176847334884e-01
-5.166753057502208035e-01
-1.730975118292826520e-01
-7.087601942305310487e-02
5.548110313464729021e-02
2.088133417439915762e-01
1.463446519401846446e-01
2.215910282947702870e-01
2.868992039987502407e-01
3.877009534548933045e-01
3.593060944531628609e-01
2.968374046493559293e-01
3.039361193997885402e-01
2.457266584462411418e-01
1.917764263429533322e-01
9.381416278698335998e-02
4.838238838421467930e-02
3.986393068369555731e-02
1.572830053222469548e-02
-4.816013222166876800e-02
-5.241936107192832900e-02
-1.124681551941920932e-02
-4.106141747123615710e-02
-2.686398797037094568e-02
-3.538244567089007808e-02
-2.828373092045746717e-02
2.850598708300338541e-02
4.696264543412816128e-02
7.109827558559901617e-02
6.967853263551250509e-02
7.961673328611815204e-02
1.122708211381081428e-01
7.393776148577206608e-02
5.974033198490685120e-02
7.393776148577206608e-02
8.813519098663727402e-02
1.449249089900981335e-01
1.151103070382811788e-01
9.949313458732944593e-02
1.222090217887137897e-01
1.364064512895790116e-01
1.562828525907903054e-01
1.236287647388003147e-01
1.250485076888868397e-01
1.420854230899250836e-01
1.278879935890598618e-01
1.236287647388003147e-01
1.946159122431263822e-01
1.733197679918285494e-01
1.804184827422611603e-01
1.704802820916555273e-01
8.103647623620467699e-02
7.819699033603162708e-02
7.393776148577206608e-02
2.850598708300338541e-02
-3.822193157106311412e-02
-1.834553026985181676e-02
3.560470183343598938e-02
1.051721063876755319e-01
8.529570508646423799e-02
-3.680218862097659610e-02
-8.507344892391832669e-02
-1.006906213748700596e-01
1.111280812729603911e-04
8.387596213637771303e-02
1.037523634375890069e-01
1.420854230899250836e-01
1.080115922878485818e-01
1.572830053222469548e-02
-1.390236810272061363e-01
-1.631593111786769912e-01
-1.361841951270330864e-01
-1.276657374265139644e-01
-1.475421387277252583e-01
-1.674185400289365522e-01
-1.617395682285904801e-01
-2.526031170341278553e-01
-2.966151484868099764e-01
-3.093928350375886871e-01
-3.789602395918281741e-01
-4.215525280944238395e-01
-3.747010107415686408e-01
-3.519851235401843526e-01
-3.406271799394921529e-01
-2.625413176847334884e-01
-2.341464586830030448e-01
-2.526031170341278553e-01
-2.795782330857717324e-01
-3.051336061873290983e-01
0.000000000000000000e+00
0.000000000000000000e+00
0.000000000000000000e+00
0.000000000000000000e+00
0.000000000000000000e+00
0.000000000000000000e+00
0.000000000000000000e+00
0.000000000000000000e+00
0.000000000000000000e+00
0.000000000000000000e+00
0.000000000000000000e+00
0.000000000000000000e+00
0.000000000000000000e+00
0.000000000000000000e+00
0.000000000000000000e+00
0.000000000000000000e+00
0.000000000000000000e+00
0.000000000000000000e+00
0.000000000000000000e+00
0.000000000000000000e+00
0.000000000000000000e+00
0.000000000000000000e+00
0.000000000000000000e+00
0.000000000000000000e+00
0.000000000000000000e+00
0.000000000000000000e+00
0.000000000000000000e+00
0.000000000000000000e+00
0.000000000000000000e+00
0.000000000000000000e+00
0.000000000000000000e+00
0.000000000000000000e+00
0.000000000000000000e+00
0.000000000000000000e+00
0.000000000000000000e+00
0.000000000000000000e+00
0.000000000000000000e+00
0.000000000000000000e+00
0.000000000000000000e+00
0.000000000000000000e+00
0.000000000000000000e+00
0.000000000000000000e+00
0.000000000000000000e+00
0.000000000000000000e+00
0.000000000000000000e+00
0.000000000000000000e+00
0.000000000000000000e+00
0.000000000000000000e+00
0.000000000000000000e+00
0.000000000000000000e+00
0.000000000000000000e+00
0.000000000000000000e+00
0.000000000000000000e+00
0.000000000000000000e+00
0.000000000000000000e+00
0.000000000000000000e+00
-1.243583696194519694e+00
-1.714938355623244703e+00
-1.892406224384059810e+00
-1.554507402263467730e+00
-9.667338209276481464e-01
-1.290854803766004755e-01
5.225765337131128563e-01
1.368743331964679566e+00
6.915259447734088960e-01
-1.144201689688463253e+00
-1.357163132201441469e+00
-1.415372593154988756e+00
-1.256361382745298405e+00
-6.146375693061907342e-01
-3.321087222389730309e-01
-2.497636311339548054e-01
9.343019892382039560e-01
1.583124517427744404e+00
7.142418319747931843e-01
3.564666085529897832e-01
-2.118501617002485973e-02
3.351704643016920060e-01
1.548631096407037666e-01
-2.852572048861178322e-01
-6.714272873096516214e-01
-6.614890866590459328e-01
-8.361174695196881279e-01
-9.795115074784267462e-01
3.522073797027302500e-01
4.515893862087867472e-01
2.798004892483176298e-01
3.706640380538550605e-01
-4.314907287450294726e-01
-9.440179337262637471e-01
2.187515423945972370e-01
2.246144475118149852e+00
3.406074465338837509e+00
1.740715984887348133e+00
9.513389046392421999e-01
1.030844509844087487e+00
-3.108125779876751982e-01
-4.059353556434721066e-01
-4.556263588965003275e-01
-2.686398797037094568e-02
-5.990203968552390013e-01
-4.967989044490094819e-01
9.385612180884634892e-01
3.096150912001345845e-01
-5.053173621495286039e-01
5.907241953172658322e-01
1.771950329789251599e+00
6.489336562708132305e-01
-3.292692363388000087e-01
-1.050498654982752855e+00
-1.828517791630166256e+00
-1.626914292717880350e+00
-7.651303220153620188e-01
4.402314426080946030e-01
6.858469729730627407e-01
6.560323710212457859e-01
6.915259447734088960e-01
6.247980261193423202e-01
4.416511855581811141e-01
1.054980139995558286e+00
2.043121233255777103e+00
1.875591565145567685e+00
7.994264089799844042e-01
-3.321087222389730309e-01
4.998606465117285125e-01
1.979232800501883771e+00
7.483156627768696723e-01
-1.276237784046509782e+00
-1.714938355623244703e+00
-2.015923861041587273e+00
-1.085992228734915965e+00
-4.882804467484903044e-01
-4.442684152958081834e-01
3.844418773360903235e-02
4.799842452105171908e-01
3.039361193997885402e-01
-4.045156126933855956e-01
-4.414289293956351057e-01
-3.704417818913090521e-01
-1.503816246278983082e-01
1.818382256923476714e-01
1.090473713747721174e+00
1.043622196394865975e+00
2.708624413291686392e-02
-1.333447092268600365e-01
-2.014923708310130679e-01
-2.242082580323974117e-01
-7.087601942305310487e-02
2.641833167973658969e-01
5.992426530177850097e-01
4.785645022604306797e-01
7.852289794791191824e-01
4.998606465117285125e-01
-2.156898003318782897e-01
7.170813178749662065e-01
1.835838762543145153e+00
1.754913414388213466e+00
1.587383746278003827e+00
1.219670322205594681e+00
-6.529706289585267553e-01
-2.305551422859237309e+00
-2.235984018304998155e+00
-2.159317899000325891e+00
-2.793942997689000673e+00
-3.043817756904228844e+00
-2.999805725451546667e+00
-2.108207152797211048e+00
-1.071794799234050632e+00
-1.603198252785039413e-01
7.781302647286866270e-01
6.858469729730627407e-01
4.075773547561046262e-01
5.367739632139780781e-01
7.057233742742741178e-01
1.043622196394865975e+00
1.832999276642972131e+00
3.505456471844893951e+00
4.255080749490576686e+00
1.378681532615285033e+00
-1.405434392504383068e+00
-1.997467202690462296e+00
-2.189132500952142735e+00
-1.714938355623244703e+00
-8.503148990205533497e-01
-4.674038927158224305e-02
2.343687148455489699e-01
5.396134491141511003e-01
3.777627528042876714e-01
1.122708211381081428e-01
-2.544424502028442420e-02
-2.118501617002485973e-02
2.499858872965007028e-01
2.286897430452028979e-01
4.373919567079215809e-01
6.730692864222841409e-01
4.757250163602576576e-01
4.430709285082676252e-01
3.096150912001345845e-01
-1.432829098774656973e-01
-1.674185400289365522e-01
-1.986528849308400180e-01
-1.305052233266870143e-01
6.825878968542598013e-02
3.692442951037685495e-01
6.560323710212457859e-01
3.294914925013459062e-01
8.387596213637771303e-02
4.345524708077485032e-01
1.832999276642972131e+00
3.310951687683040490e+00
2.984410809163140499e+00
1.886949508746259996e+00
2.457266584462411418e-01
-1.351484160401095425e+00
-2.754190195086578363e+00
-3.809059207000863978e+00
-3.356161205923263502e+00
-2.984188553000595157e+00
-3.360420434773523368e+00
-4.101526254718687703e+00
-3.263877914167639727e+00
-1.646790694019091728e+00
-8.361174695196881279e-01
-2.284674868826569727e-01
7.819699033603162708e-02
6.333164838198614977e-01
7.483156627768696723e-01
1.303435156260699390e+00
2.122626838460622611e+00
1.216830836305421659e+00
1.307274794892329117e-01
-1.361841951270330864e-01
4.838238838421467930e-02
4.980213133430120426e-02
9.239441983689684890e-02
5.410331920642376113e-01
8.704135564843105133e-01
1.155781889451701350e+00
9.513389046392421999e-01
7.667723211279944273e-01
3.436889220022111280e-01
-6.377730467262049396e-02
-7.087601942305310487e-02
9.807339163724292097e-02
4.615275868593924358e-01
3.621455803533358830e-01
-5.099961812184181098e-02
-1.518013675779848193e-01
-1.106288220254757065e-01
-3.179112927381078091e-01
-2.738992612854256326e-01
6.825878968542598013e-02
4.615275868593924358e-01
4.317129849075754811e-01
4.373919567079215809e-01
4.444906714583541918e-01
3.507876367526437389e-01
2.343687148455489699e-01
1.023326204875024958e-01
1.548631096407037666e-01
8.103647623620467699e-02
1.789987397921746493e-01
1.491841378403576945e-01
1.278879935890598618e-01
1.946159122431263822e-01
1.065918493377620568e-01
3.560470183343598938e-02
6.541930378525294409e-02
6.399956083516641914e-02
-6.987586669159645721e-03
-8.407329619246168076e-03
1.530871031359481689e-03
3.560470183343598938e-02
1.004932873187860953e-02
1.572830053222469548e-02
4.412315953395511831e-02
6.116007493499337616e-02
8.955493393672379898e-02
4.838238838421467930e-02
2.424675823274382094e-02
-1.266655846950573081e-02
-3.822193157106311412e-02
1.430855758213817400e-02
3.134547298317642838e-02
-3.822193157106311412e-02
-1.234065085762543895e-01
-9.785113547469700968e-02
-8.649319187400483777e-02
-1.077893361253026566e-01
-7.229576237313962983e-02
-8.081422007365875182e-02
-1.021103643249565707e-01
-7.371550532322615479e-02
-5.951807582236093991e-02
-9.501164957452397364e-02
-1.134683079256487426e-01
-1.603198252785039413e-01
-1.901344272303208960e-01
-1.361841951270330864e-01
-8.365370597383180173e-02
5.264161723447424723e-02
1.395718448016323388e+00
4.605757258161947476e+00
4.002366504375176604e+00
-6.146375693061907342e-01
-2.373699084463390729e+00
-3.466901156030012476e+00
-3.395914008525686256e+00
-2.075553064945220960e+00
-1.080313256934569699e+00
-2.526031170341278553e-01
-4.499473870961542277e-01
-3.221705215883673978e-01
-6.714272873096516214e-01
-6.345139706074020003e-01
4.270341658386860029e-02
1.185596491403518193e+00
1.226769036956027348e+00
1.856778643239773846e-02
-4.442684152958081834e-01
-9.014256452236680817e-01
-6.288349988070559560e-01
2.230107712448567980e-01
1.378681532615285033e+00
4.557485997859005877e+00
5.693280357928223623e+00
3.887367325418168207e+00
-1.621235320917534306e+00
-3.574801620236587762e+00
-3.813318435851123400e+00
-2.704499191833550142e+00
-1.616976092067274662e+00
-1.284756241747028849e+00
-2.620734357778445212e+00
-2.404933429365294195e+00
-4.314907287450294726e-01
-4.967989044490094819e-01
-4.797619890479711824e-01
1.364064512895790116e-01
1.947998455599980305e+00
2.667808131293846419e+00
5.751070228663140993e-01
1.774789815689424621e+00
3.411753437139183553e+00
3.010966334996154625e-01
-1.886727252583713765e+00
-2.177774557351450646e+00
-2.473081090969447171e+00
-2.235984018304998155e+00
-1.923640569285963275e+00
-7.736487797158811963e-01
-7.892659521668329292e-01
-1.340126216800403114e+00
2.868992039987502407e-01
7.170813178749662065e-01
5.438726779644106335e-01
1.147263431751182061e+00
1.043622196394865975e+00
1.216830836305421659e+00
1.135905488150489973e+00
1.090473713747721174e+00
1.043622196394865975e+00
9.371414751383769781e-01
8.576358699335318025e-01
7.852289794791191824e-01
1.333249758212516456e+00
9.967706790420108875e-01
-2.544424502028442420e-02
-2.057515996812726289e-01
3.436889220022111280e-01
1.869912593345221641e+00
3.168977392674388494e+00
1.962195885100845416e+00
-7.580316072649294634e-01
-2.312650137609669976e+00
-2.235984018304998155e+00
-9.965484228794649901e-01
2.950613981446002961e-03
2.173317994445107260e-01
-6.700075443595651103e-01
-1.798703189678349412e+00
-1.534631000962256353e+00
-8.219200400188229061e-01
-6.146375693061907342e-01
2.230107712448567980e-01
1.147263431751182061e+00
7.355379762260909615e-01
3.735035239540280827e-01
-4.106141747123615710e-02
-5.138358198500476703e-01
-5.209345346004803368e-01
-1.560605964282443803e-01
3.962194111554124265e-01
3.692442951037685495e-01
-8.407329619246168076e-03
-5.308727352510859143e-01
-1.074634285134223655e+00
-1.368521075802133558e+00
-1.088831714635088987e+00
-4.854409608483172822e-01
3.266520066011728840e-01
7.951671801297248710e-01
1.165720090102306816e+00
1.962195885100845416e+00
1.517816341723764451e+00
1.619618243911363775e-01
-2.156898003318782897e-01
-5.905019391547198238e-01
-6.586496007588729107e-01
-6.842049738604302211e-01
-9.937089369792919680e-01
-7.282170053131125087e-01
-6.146375693061907342e-01
-1.063695931752161455e-01
4.696264543412816128e-02
2.282701528265729946e-02
1.307274794892329117e-01
2.230107712448567980e-01
3.124545771003076622e-01
2.528253731966737528e-01
6.134400825186502315e-01
2.246144475118149852e+00
4.902483534730031067e+00
3.887367325418168207e+00
3.621455803533358830e-01
-1.156979376239241963e+00
-2.397834714614861529e+00
-2.593759241726801168e+00
-2.373699084463390729e+00
-1.905183910934838520e+00
-1.469322825258276399e+00
-1.496297941309920443e+00
-7.211182905626798423e-01
1.321472224393194506e-01
1.093313199647894418e+00
8.505371551830991361e-01
6.333164838198614977e-01
6.744890293723706520e-01
1.676407961914824774e-01
5.438726779644106335e-01
6.404151985702940530e-01
2.812202321984041964e-01
-3.396270272080355312e-02
-9.075242072426439877e-02
-8.659320714715050826e-01
-9.880299651789459237e-01
-4.669843024971925272e-01
-1.041980197282233789e+00
-1.060436855633358544e+00
-1.131424003137684542e+00
-6.174770552063637563e-01
1.662210532413959385e-01
3.621455803533358830e-01
5.807859946666602546e-01
2.755412603980580966e-01
-9.927087842478353463e-02
8.590556128836183136e-01
2.338427766873773628e+00
1.043622196394865975e+00
-5.053173621495286039e-01
-3.150718068379347869e-01
-7.708092938157081742e-01
-2.653808035849065106e-01
7.667723211279944273e-01
8.775122712347430687e-01
2.201712853446837481e-01
-9.937089369792919680e-01
-6.728470302597381325e-01
1.520236237405307445e-01
6.318967408697749866e-01
7.852289794791191824e-01
4.132563265564506705e-01
3.791824957543741825e-01
2.798004892483176298e-01
1.761592538920015993e-01
3.962194111554124265e-01
6.744890293723706520e-01
2.343687148455489699e-01
-2.625413176847334884e-01
-4.816013222166876800e-02
3.152940630004806843e-01
8.107843525806766038e-01
1.476643796171255296e+00
1.216830836305421659e+00
-1.816159695298017740e-01
-8.574136137709859051e-01
-9.667338209276481464e-01
-1.183954492290885785e+00
-7.892659521668329292e-01
1.506458398123072140e+00
5.693280357928223623e+00
5.693280357928223623e+00
1.766271357988905555e+00
-6.856247168105168432e-01
-3.489617043231396654e+00
-4.645287804601824888e+00
-3.448444497678887277e+00
-3.282334572518764482e+00
-4.039057564914880771e+00
-4.846891303514111016e+00
-2.305551422859237309e+00
-9.582153632271289689e-01
-1.469322825258276399e+00
-1.276237784046509782e+00
-1.541729715712689019e+00
-9.284007612753120142e-01
-1.205670226760813535e-01
6.247980261193423202e-01
1.691024981634319913e+00
2.477562575982252824e+00
1.967874856901191682e+00
1.124547544549797884e+00
9.513389046392421999e-01
4.998606465117285125e-01
1.216830836305421659e+00
2.984410809163140499e+00
3.319470145383559778e+00
1.469545081420822630e+00
4.373919567079215809e-01
1.832579686424342102e-01
-3.680218862097659610e-02
1.054980139995558286e+00
1.587383746278003827e+00
8.505371551830991361e-01
-1.730975118292826520e-01
-1.802962418528609057e+00
-2.886226289444624893e+00
-1.807221647378868479e+00
-7.892659521668329292e-01
-1.155559633289155341e+00
-1.059017112683271922e+00
-7.807474944663137517e-01
-6.288349988070559560e-01
-1.049498502251296206e-01
4.615275868593924358e-01
1.211151864505075615e+00
1.384360504415631299e+00
1.228188779906113748e+00
1.469545081420822630e+00
1.182757005503345171e+00
7.369577191761774726e-01
6.858469729730627407e-01
7.539946345772157166e-01
8.150435814309361371e-01
9.665364868715640989e-02
-3.704417818913090521e-01
-7.594513502150159745e-01
-1.225127037843394939e+00
-5.195147916503938257e-01
1.228188779906113748e+00
1.006708879692616465e+00
-9.359190662443744868e-02
-1.816159695298017740e-01
-2.200490444552834823e+00
-2.663326646281040766e+00
-2.616475128928185789e+00
-2.149379698349719980e+00
-5.280332493509128922e-01
-1.262459944764274256e-01
-4.556263588965003275e-01
-1.068955313333877610e+00
-4.854409608483172822e-01
-2.568623458843873886e-01
1.278879935890598618e-01
5.055396183120746123e-01
1.090473713747721174e+00
1.425533049968140231e+00
3.564666085529897832e-01
5.832058903482033319e-02
4.473301573585272140e-01
5.807859946666602546e-01
5.381937061640645892e-01
4.132563265564506705e-01
3.844418773360903235e-02
-1.475421387277252583e-01
4.075773547561046262e-01
8.079448666805035817e-01
2.712820315477985078e-01
1.146907168196513102e-02
-5.567843719073125100e-03
-3.051336061873290983e-01
-3.463061517398382527e-01
-3.278494933887134422e-01
-3.477258946899247638e-01
-3.789602395918281741e-01
-2.597018317845604662e-01
-8.223396302374527678e-02
7.819699033603162708e-02
1.761592538920015993e-01
3.479481508524706612e-01
4.132563265564506705e-01
2.769610033481446076e-01
3.025163764497019736e-01
2.570846020469333415e-01
2.201712853446837481e-01
1.846777115925207213e-01
1.619618243911363775e-01
2.045541128937320152e-01
2.201712853446837481e-01
2.656030597474524635e-01
2.372082007457220199e-01
2.017146269935589931e-01
1.988751410933859431e-01
1.364064512895790116e-01
1.193695358885407537e-01
1.278879935890598618e-01
9.381416278698335998e-02
8.671544803655076294e-02
8.955493393672379898e-02
1.080115922878485818e-01
1.051721063876755319e-01
2.424675823274382094e-02
6.967853263551250509e-02
1.065918493377620568e-01
5.264161723447424723e-02
4.838238838421467930e-02
1.998752938248425995e-02
7.209842831705566557e-03
-2.686398797037094568e-02
-4.148100768986603612e-03
-4.148100768986603612e-03
-5.099961812184181098e-02
-9.075242072426439877e-02
-5.809833287227441495e-02
2.992573003308990690e-02
1.288881463205165251e-02
-4.148100768986603612e-03
5.790099881619045936e-03
-5.241936107192832900e-02
-3.538244567089007808e-02
-7.655499122339919083e-02
-1.816159695298017740e-01
-1.390236810272061363e-01
-1.290854803766004755e-01
-1.503816246278983082e-01
-1.773567406795422130e-01
-1.461223957776387472e-01
-8.933267777417788769e-02
-9.217216367435092372e-02
-1.106288220254757065e-01
-1.063695931752161455e-01
-1.262459944764274256e-01
-1.929739131304939459e-01
-1.958133990306669958e-01
-1.120485649755622315e-01
-9.359190662443744868e-02
-1.404434239772926474e-01
-7.939447712357224074e-02
-1.234065085762543895e-01
-2.171095432819648008e-01
-1.730975118292826520e-01
-1.532211105280713304e-01
-9.359190662443744868e-02
-1.148880508757352675e-01
-1.177275367759083036e-01
-1.063695931752161455e-01
-1.518013675779848193e-01
-6.519704762270701892e-02
-1.077893361253026566e-01
-1.503816246278983082e-01
-1.234065085762543895e-01
-9.217216367435092372e-02
1.288881463205165251e-02
4.980213133430120426e-02
3.560470183343598938e-02
5.406136018456076525e-02
7.819699033603162708e-02
9.381416278698335998e-02
9.949313458732944593e-02
0.000000000000000000e+00
0.000000000000000000e+00
0.000000000000000000e+00
0.000000000000000000e+00
0.000000000000000000e+00
0.000000000000000000e+00
0.000000000000000000e+00
0.000000000000000000e+00
0.000000000000000000e+00
0.000000000000000000e+00
0.000000000000000000e+00
0.000000000000000000e+00
0.000000000000000000e+00
0.000000000000000000e+00
0.000000000000000000e+00
0.000000000000000000e+00
0.000000000000000000e+00
0.000000000000000000e+00
0.000000000000000000e+00
0.000000000000000000e+00
0.000000000000000000e+00
0.000000000000000000e+00
0.000000000000000000e+00
0.000000000000000000e+00
0.000000000000000000e+00
0.000000000000000000e+00
0.000000000000000000e+00
0.000000000000000000e+00
0.000000000000000000e+00
0.000000000000000000e+00
0.000000000000000000e+00
0.000000000000000000e+00
0.000000000000000000e+00
0.000000000000000000e+00
0.000000000000000000e+00
0.000000000000000000e+00
0.000000000000000000e+00
0.000000000000000000e+00
0.000000000000000000e+00
0.000000000000000000e+00
0.000000000000000000e+00
0.000000000000000000e+00
0.000000000000000000e+00
0.000000000000000000e+00
0.000000000000000000e+00
0.000000000000000000e+00
0.000000000000000000e+00
0.000000000000000000e+00
0.000000000000000000e+00
0.000000000000000000e+00
0.000000000000000000e+00
0.000000000000000000e+00
0.000000000000000000e+00
0.000000000000000000e+00
0.000000000000000000e+00
0.000000000000000000e+00
0.000000000000000000e+00
0.000000000000000000e+00
0.000000000000000000e+00
0.000000000000000000e+00
0.000000000000000000e+00
-2.686398797037094568e-02
9.343019892382039560e-01
1.333249758212516456e+00
1.414175106367448143e+00
6.858469729730627407e-01
-1.253521896845125383e+00
-2.431908545416937795e+00
-3.004064954301806534e+00
-2.894744747145143737e+00
-2.079812293795480826e+00
-1.375619790552566224e+00
-9.738325356780807018e-01
-1.050498654982752855e+00
-9.496969055266097914e-01
-1.248262515263409145e-01
2.641833167973658969e-01
4.018983829557585263e-01
6.233782831692558091e-01
5.481319068146701667e-01
7.312787473758314283e-01
8.079448666805035817e-01
9.130058449869060677e-01
8.775122712347430687e-01
6.631310857716784524e-01
6.560323710212457859e-01
6.162795684188232537e-01
5.694280510659680550e-01
5.438726779644106335e-01
5.254160196132858784e-01
4.231945272070563591e-01
4.615275868593924358e-01
8.590556128836183136e-01
2.676326588994365707e+00
5.649268326475541002e+00
3.701380998956833590e+00
-3.477258946899247638e-01
-1.988948744989943229e+00
-3.353321720023090702e+00
-2.634931787279310544e+00
-2.108207152797211048e+00
-1.903764167984751898e+00
-2.749930966236318497e+00
-3.188631537813054084e+00
-1.554507402263467730e+00
-8.503148990205533497e-01
-1.787764836296287241e-01
7.535750443585859104e-02
3.479481508524706612e-01
6.489336562708132305e-01
8.178830673311091592e-01
9.513389046392421999e-01
1.124547544549797884e+00
1.135905488150489973e+00
8.235620391314553146e-01
8.377594686323205364e-01
4.799842452105171908e-01
5.832058903482033319e-02
-1.659987970788500411e-01
-9.827072569332689564e-03
1.719000250417420383e-01
5.264161723447424723e-02
1.307274794892329117e-01
1.846777115925207213e-01
3.110348341502211511e-01
3.649850662535089607e-01
6.489336562708132305e-01
8.136238384808496260e-01
7.170813178749662065e-01
3.266520066011728840e-01
2.230107712448567980e-01
6.077611107183040762e-01
5.126383330625071677e-01
2.173317994445107260e-01
-2.398254304833491446e-01
-9.927087842478353463e-02
5.268357625633723895e-01
9.967706790420108875e-01
7.767105217786001159e-01
5.935636812174388544e-01
4.487499003086137250e-01
-2.639610606348199995e-01
-6.046993686555850456e-01
-9.880299651789459237e-01
-8.957466734233220373e-01
-1.142781946738376631e+00
-1.736234499874542481e+00
-1.604198405516495951e+00
-1.524692800311650887e+00
-1.225127037843394939e+00
-1.049498502251296206e-01
5.367739632139780781e-01
3.962194111554124265e-01
3.110348341502211511e-01
6.247980261193423202e-01
1.378681532615285033e+00
8.704135564843105133e-01
4.657868157096519690e-01
2.060158148656815680e+00
3.962613701772753849e+00
3.447247010891346441e+00
1.179497929384542287e-01
-1.612716863217015018e+00
-2.015923861041587273e+00
-2.911781662546182314e+00
-2.840794515041856094e+00
-1.775987302476965013e+00
-9.071046170240142370e-01
-1.449446423957065244e+00
-1.368521075802133558e+00
-4.556263588965003275e-01
2.258502571450298479e-01
-2.824177189859447545e-01
-8.659320714715050826e-01
-9.965484228794649901e-01
-1.276657374265139644e-01
9.967706790420108875e-01
6.290572549696019644e-01
4.075773547561046262e-01
3.962194111554124265e-01
6.290572549696019644e-01
7.227602896753123618e-01
9.385612180884634892e-01
1.923862825448509506e+00
1.395718448016323388e+00
4.615275868593924358e-01
1.349867083394924727e-01
-7.939447712357224074e-02
2.883189469488368073e-01
2.755412603980580966e-01
4.047378688559315485e-01
2.286897430452028979e-01
-1.858751983800613350e-01
-5.933414250548929569e-01
-1.183954492290885785e+00
-1.172596548690193696e+00
-1.022103795981022412e+00
-1.398335677753950623e+00
-9.454376766763502582e-01
1.662210532413959385e-01
2.798004892483176298e-01
1.534433666906172555e-01
2.443069154961546308e-01
4.657868157096519690e-01
5.637490792656220107e-01
7.781302647286866270e-01
1.118868572749451618e+00
1.135905488150489973e+00
8.462779263328396029e-01
3.380099502018650282e-01
-1.404434239772926474e-01
-4.641448165970194495e-01
-4.045156126933855956e-01
6.825878968542598013e-02
1.026585280993827842e+00
2.488920519582944912e+00
2.872251116106305791e+00
1.249484924157411747e+00
-3.093928350375886871e-01
-1.683704010721341238e+00
-2.262959134356641755e+00
-1.831357277530339500e+00
-1.635432750418399417e+00
-1.530371772111996931e+00
-1.923640569285963275e+00
-1.825678305729993234e+00
-1.219448066043048895e+00
-7.906856951169194403e-01
-3.633430671408764967e-01
-7.513524827331266587e-02
5.722675369661410771e-01
1.320472071661737745e+00
2.302934193121610740e+00
2.782807310250854815e+00
1.320472071661737745e+00
9.381416278698335998e-02
-9.014256452236680817e-01
-1.284756241747028849e+00
-9.582153632271289689e-01
-7.097603469619876426e-01
-3.633430671408764967e-01
-7.097603469619876426e-01
-3.377876940393191307e-01
-4.499473870961542277e-01
-8.020436387176116400e-01
-5.053173621495286039e-01
-2.738992612854256326e-01
2.850598708300338541e-02
2.514056302465872417e-01
3.266520066011728840e-01
3.522073797027302500e-01
3.947996682053259154e-01
2.329489718954624589e-01
3.110348341502211511e-01
3.664048092035954718e-01
3.735035239540280827e-01
3.735035239540280827e-01
3.522073797027302500e-01
4.047378688559315485e-01
2.868992039987502407e-01
1.619618243911363775e-01
1.065918493377620568e-01
8.245621918629118807e-02
1.548631096407037666e-01
1.860974545426072602e-01
1.520236237405307445e-01
1.832579686424342102e-01
1.690605391415689884e-01
1.562828525907903054e-01
1.108510781880216178e-01
1.222090217887137897e-01
1.080115922878485818e-01
9.381416278698335998e-02
1.037523634375890069e-01
4.412315953395511831e-02
8.245621918629118807e-02
7.677724738594510212e-02
8.671544803655076294e-02
1.009128775374159709e-01
1.236287647388003147e-01
1.548631096407037666e-01
9.949313458732944593e-02
1.349867083394924727e-01
8.245621918629118807e-02
6.116007493499337616e-02
3.134547298317642838e-02
4.370356931532524448e-03
7.209842831705566557e-03
-8.223396302374527678e-02
-7.087601942305310487e-02
-1.976527321993833824e-02
-2.728357818900082124e-03
-3.680218862097659610e-02
-7.371550532322615479e-02
-4.674038927158224305e-02
-2.402450207019790271e-02
-1.550604436967877378e-02
1.572830053222469548e-02
8.629585781792088045e-03
-2.686398797037094568e-02
-4.106141747123615710e-02
-7.655499122339919083e-02
-1.163077938258217925e-01
-1.560605964282443803e-01
-1.120485649755622315e-01
-5.383910402201485396e-02
-7.939447712357224074e-02
-7.229576237313962983e-02
-6.093781877244745793e-02
-1.234065085762543895e-01
-1.560605964282443803e-01
-1.404434239772926474e-01
-1.617395682285904801e-01
-1.461223957776387472e-01
-1.461223957776387472e-01
-1.787764836296287241e-01
-2.582820888344738997e-01
-2.738992612854256326e-01
-2.597018317845604662e-01
-1.830357124798882851e-01
-1.645790541287635023e-01
-1.617395682285904801e-01
-6.093781877244745793e-02
-6.093781877244745793e-02
-2.118501617002485973e-02
-5.567843719073125100e-03
-2.686398797037094568e-02
-3.254295977071703511e-02
-5.099961812184181098e-02
-4.106141747123615710e-02
-2.260475912011138122e-02
-3.254295977071703511e-02
-4.106141747123615710e-02
8.629585781792088045e-03
-4.148100768986603612e-03
-2.686398797037094568e-02
3.134547298317642838e-02
7.677724738594510212e-02
8.529570508646423799e-02
3.986393068369555731e-02
0.000000000000000000e+00
0.000000000000000000e+00
0.000000000000000000e+00
0.000000000000000000e+00
0.000000000000000000e+00
0.000000000000000000e+00
0.000000000000000000e+00
0.000000000000000000e+00
0.000000000000000000e+00
0.000000000000000000e+00
0.000000000000000000e+00
0.000000000000000000e+00
0.000000000000000000e+00
0.000000000000000000e+00
0.000000000000000000e+00
0.000000000000000000e+00
0.000000000000000000e+00
0.000000000000000000e+00
0.000000000000000000e+00
0.000000000000000000e+00
0.000000000000000000e+00
0.000000000000000000e+00
0.000000000000000000e+00
0.000000000000000000e+00
0.000000000000000000e+00
0.000000000000000000e+00
0.000000000000000000e+00
0.000000000000000000e+00
0.000000000000000000e+00
0.000000000000000000e+00
0.000000000000000000e+00
0.000000000000000000e+00
0.000000000000000000e+00
0.000000000000000000e+00
0.000000000000000000e+00
0.000000000000000000e+00
0.000000000000000000e+00
0.000000000000000000e+00
0.000000000000000000e+00
0.000000000000000000e+00
0.000000000000000000e+00
0.000000000000000000e+00
0.000000000000000000e+00
0.000000000000000000e+00
0.000000000000000000e+00
0.000000000000000000e+00
0.000000000000000000e+00
0.000000000000000000e+00
0.000000000000000000e+00
0.000000000000000000e+00
0.000000000000000000e+00
0.000000000000000000e+00
0.000000000000000000e+00
0.000000000000000000e+00
0.000000000000000000e+00
0.000000000000000000e+00
0.000000000000000000e+00
0.000000000000000000e+00
0.000000000000000000e+00
0.000000000000000000e+00
0.000000000000000000e+00
0.000000000000000000e+00
0.000000000000000000e+00
0.000000000000000000e+00
0.000000000000000000e+00
2.982571475994424404e-01
8.136238384808496260e-01
3.039361193997885402e-01
-3.832194684420877628e-01
-5.422306788517781140e-01
-8.148213252683903507e-01
-5.223542775505668478e-01
1.714804348231121697e-02
-3.254295977071703511e-02
-3.988366408930394957e-01
-6.146375693061907342e-01
-8.602530996711590383e-01
-7.097603469619876426e-01
3.986393068369555731e-02
6.744890293723706520e-01
1.202633406804556548e+00
1.363064360164333300e+00
9.882522213414917100e-01
5.807859946666602546e-01
5.296752484635454117e-01
4.842434740607767796e-01
4.998606465117285125e-01
5.126383330625071677e-01
2.868992039987502407e-01
3.706640380538550605e-01
3.862812105048067934e-01
4.544288721089598249e-01
9.130058449869060677e-01
8.590556128836183136e-01
1.568927087926879071e+00
3.319470145383559778e+00
2.799844225651892948e+00
1.662210532413959385e-01
-1.831357277530339500e+00
-2.565364382725070946e+00
-2.700239962983290276e+00
-2.840794515041856094e+00
-2.079812293795480826e+00
-1.554507402263467730e+00
-1.554507402263467730e+00
-1.590000976015630840e+00
-1.605618148466582573e+00
-9.937089369792919680e-01
-1.131424003137684542e+00
-7.069208610618146205e-01
5.751070228663140993e-01
1.043622196394865975e+00
1.134485745200403350e+00
1.118868572749451618e+00
1.090473713747721174e+00
1.124547544549797884e+00
9.967706790420108875e-01
8.973886725359543348e-01
8.590556128836183136e-01
1.015227337393135754e+00
9.513389046392421999e-01
5.907241953172658322e-01
4.586881009592193581e-01
2.230107712448567980e-01
1.080115922878485818e-01
1.406656801398385725e-01
2.968374046493559293e-01
5.325147343637184338e-01
4.657868157096519690e-01
3.451086649522976391e-01
7.852289794791191824e-01
1.211151864505075615e+00
4.998606465117285125e-01
1.998752938248425995e-02
-2.710597753852526104e-01
-6.501311430583537332e-01
-7.679698079155351520e-01
-7.040813751616415983e-01
-4.286512428448564505e-01
-8.801295009723703044e-01
-1.205250636542183562e+00
-1.030622253681541478e+00
-8.148213252683903507e-01
-1.730975118292826520e-01
1.275040297258968947e+00
2.480402061882425624e+00
2.202132443665467676e+00
1.587383746278003827e+00
8.107843525806766038e-01
-5.919216821048063348e-01
-1.348644674500922402e+00
-1.161238605089501608e+00
-1.746172700525148169e+00
-2.663326646281040766e+00
-2.379378056263736774e+00
-1.127164774287424898e+00
4.700460445599115578e-01
4.515893862087867472e-01
-3.477258946899247638e-01
-9.965484228794649901e-01
-1.739073985774715503e+00
-9.142033317744467924e-01
-8.081422007365875182e-02
3.834417246046337713e-01
8.178830673311091592e-01
1.425533049968140231e+00
1.647012950181637736e+00
1.015227337393135754e+00
1.198374177954296904e+00
1.135905488150489973e+00
1.043622196394865975e+00
7.852289794791191824e-01
5.055396183120746123e-01
2.457266584462411418e-01
-5.038976191994420928e-01
-9.071046170240142370e-01
-8.219200400188229061e-01
-8.801295009723703044e-01
-1.128584517237511520e+00
-7.282170053131125087e-01
-4.726632742975385715e-01
-3.377876940393191307e-01
-5.241936107192832900e-02
3.877009534548933045e-01
7.852289794791191824e-01
1.155781889451701350e+00
1.228188779906113748e+00
6.744890293723706520e-01
6.361559697200345198e-01
7.170813178749662065e-01
3.962194111554124265e-01
9.598573623397612664e-01
2.615277642140645398e+00
2.667808131293846419e+00
5.779465087664871215e-01
-6.288349988070559560e-01
-1.071794799234050632e+00
-1.625494549767793728e+00
-1.192472949991405073e+00
-9.667338209276481464e-01
-1.443767452156719200e+00
-2.015923861041587273e+00
-2.406353172315380373e+00
-2.470241605069273927e+00
-2.146540212449547180e+00
-1.192472949991405073e+00
-3.150718068379347869e-01
3.564666085529897832e-01
5.225765337131128563e-01
9.626968482399343996e-01
1.610099633479388226e+00
1.455347651919957519e+00
7.170813178749662065e-01
2.031343699436455041e-01
-5.809833287227441495e-02
-3.988366408930394957e-01
-2.653808035849065106e-01
2.950613981446002961e-03
-1.106288220254757065e-01
-3.179112927381078091e-01
-2.582820888344738997e-01
-2.483438881838682666e-01
-3.548246094403573747e-01
-1.730975118292826520e-01
1.288881463205165251e-02
1.364064512895790116e-01
1.733197679918285494e-01
1.449249089900981335e-01
1.364064512895790116e-01
1.151103070382811788e-01
8.813519098663727402e-02
6.116007493499337616e-02
1.307274794892329117e-01
3.134547298317642838e-02
1.122708211381081428e-01
3.152940630004806843e-01
2.542451161467602638e-01
1.875171974926937712e-01
2.258502571450298479e-01
2.215910282947702870e-01
1.676407961914824774e-01
2.159120564944241871e-01
1.988751410933859431e-01
1.917764263429533322e-01
2.002948840434724542e-01
1.818382256923476714e-01
1.222090217887137897e-01
1.222090217887137897e-01
1.534433666906172555e-01
1.420854230899250836e-01
1.420854230899250836e-01
1.591223384909633554e-01
2.088133417439915762e-01
1.662210532413959385e-01
1.577025955408768165e-01
1.491841378403576945e-01
1.009128775374159709e-01
1.108510781880216178e-01
1.250485076888868397e-01
8.671544803655076294e-02
7.677724738594510212e-02
9.239441983689684890e-02
5.690084608473380823e-02
4.980213133430120426e-02
3.134547298317642838e-02
6.399956083516641914e-02
9.381416278698335998e-02
7.109827558559901617e-02
8.529570508646423799e-02
5.832058903482033319e-02
5.122187428438772228e-02
2.850598708300338541e-02
-2.544424502028442420e-02
-4.148100768986603612e-03
-7.655499122339919083e-02
-1.376039380771195975e-01
-7.087601942305310487e-02
-2.402450207019790271e-02
-2.260475912011138122e-02
-1.408630141959225229e-02
-2.402450207019790271e-02
-7.513524827331266587e-02
-8.507344892391832669e-02
-9.501164957452397364e-02
-1.290854803766004755e-01
-1.901344272303208960e-01
-2.142700573817917509e-01
-2.298872298327434838e-01
-1.773567406795422130e-01
-1.376039380771195975e-01
-1.305052233266870143e-01
-1.063695931752161455e-01
-2.142700573817917509e-01
-2.625413176847334884e-01
-2.497636311339548054e-01
-2.384056875332626335e-01
-1.503816246278983082e-01
-5.951807582236093991e-02
-7.229576237313962983e-02
-5.241936107192832900e-02
-9.827072569332689564e-03
-2.728357818900082124e-03
-3.680218862097659610e-02
-9.359190662443744868e-02
-7.513524827331266587e-02
-9.785113547469700968e-02
-7.939447712357224074e-02
-1.550604436967877378e-02
-3.680218862097659610e-02
-3.964167452114963908e-02
-7.087601942305310487e-02
-7.939447712357224074e-02
0.000000000000000000e+00
0.000000000000000000e+00
0.000000000000000000e+00
0.000000000000000000e+00
0.000000000000000000e+00
0.000000000000000000e+00
0.000000000000000000e+00
0.000000000000000000e+00
0.000000000000000000e+00
0.000000000000000000e+00
0.000000000000000000e+00
0.000000000000000000e+00
0.000000000000000000e+00
0.000000000000000000e+00
0.000000000000000000e+00
0.000000000000000000e+00
0.000000000000000000e+00
0.000000000000000000e+00
0.000000000000000000e+00
0.000000000000000000e+00
0.000000000000000000e+00
0.000000000000000000e+00
0.000000000000000000e+00
0.000000000000000000e+00
0.000000000000000000e+00
0.000000000000000000e+00
0.000000000000000000e+00
0.000000000000000000e+00
0.000000000000000000e+00
0.000000000000000000e+00
0.000000000000000000e+00
0.000000000000000000e+00
0.000000000000000000e+00
0.000000000000000000e+00
0.000000000000000000e+00
0.000000000000000000e+00
0.000000000000000000e+00
0.000000000000000000e+00
0.000000000000000000e+00
0.000000000000000000e+00
0.000000000000000000e+00
0.000000000000000000e+00
0.000000000000000000e+00
0.000000000000000000e+00
0.000000000000000000e+00
0.000000000000000000e+00
0.000000000000000000e+00
0.000000000000000000e+00
0.000000000000000000e+00
0.000000000000000000e+00
0.000000000000000000e+00
0.000000000000000000e+00
0.000000000000000000e+00
0.000000000000000000e+00
0.000000000000000000e+00
0.000000000000000000e+00
0.000000000000000000e+00
0.000000000000000000e+00
3.479481508524706612e-01
2.102330846940781151e-01
-9.284007612753120142e-01
-2.172095585551104602e+00
-2.657647674480694722e+00
-2.264378877306728377e+00
-1.368521075802133558e+00
-8.361174695196881279e-01
-6.401929424077481556e-01
-3.661825530410495189e-01
-2.909361766864639320e-01
-3.406271799394921529e-01
-2.767387471855987102e-01
2.031343699436455041e-01
8.590556128836183136e-01
1.470964824370909252e+00
1.211151864505075615e+00
6.858469729730627407e-01
4.075773547561046262e-01
-2.412451734334356557e-01
-4.882804467484903044e-01
-1.730975118292826520e-01
2.329489718954624589e-01
1.449249089900981335e-01
4.075773547561046262e-01
8.775122712347430687e-01
9.044873872863870012e-01
6.333164838198614977e-01
2.372082007457220199e-01
2.656030597474524635e-01
3.536271226528167611e-01
4.132563265564506705e-01
3.706640380538550605e-01
4.302932419574889700e-01
5.268357625633723895e-01
5.637490792656220107e-01
7.369577191761774726e-01
9.130058449869060677e-01
6.702298005221110078e-01
2.485661443464141918e-01
4.980213133430120426e-02
-1.092090790753891816e-01
3.134547298317642838e-02
-4.106141747123615710e-02
3.134547298317642838e-02
-4.390090337140920007e-02
-5.592675942528163580e-01
-8.900677016229759930e-01
-4.982186473990959930e-01
8.955493393672379898e-02
5.406136018456076525e-02
1.108510781880216178e-01
1.917764263429533322e-01
4.075773547561046262e-01
8.150435814309361371e-01
1.488001739771947385e+00
1.691024981634319913e+00
1.043622196394865975e+00
3.564666085529897832e-01
-4.258117569446833728e-01
-6.075388545557580677e-01
-5.635268231030760022e-01
-1.972331419807535069e-01
6.176993113689097648e-01
5.552306215651028332e-01
4.132563265564506705e-01
-1.550604436967877378e-02
-6.572298578087863996e-01
-7.509328925144969080e-01
-1.098769915285694676e+00
-1.205250636542183562e+00
-1.253521896845125383e+00
-1.460804367557757333e+00
-1.284756241747028849e+00
-5.067371050996151149e-01
1.548631096407037666e-01
7.213405467252258507e-01
1.414175106367448143e+00
1.216830836305421659e+00
5.438726779644106335e-01
-2.171095432819648008e-01
-6.856247168105168432e-01
-7.211182905626798423e-01
-2.554426029343008775e-01
1.278879935890598618e-01
-3.633430671408764967e-01
7.852289794791191824e-01
3.406074465338837509e+00
3.245643511979060314e+00
1.275040297258968947e+00
7.057233742742741178e-01
-2.809979760358582435e-01
-1.697901440222206348e+00
-2.373699084463390729e+00
-2.886226289444624893e+00
-2.423390087716418950e+00
-1.865431108332415988e+00
-2.634931787279310544e+00
-2.754190195086578363e+00
-1.183954492290885785e+00
-3.335284651890595420e-01
2.528253731966737528e-01
8.704135564843105133e-01
1.147263431751182061e+00
1.219670322205594681e+00
1.026585280993827842e+00
1.228188779906113748e+00
9.044873872863870012e-01
6.730692864222841409e-01
1.090473713747721174e+00
1.832999276642972131e+00
2.017565860154219681e+00
1.495100454522380051e+00
5.410331920642376113e-01
-1.816159695298017740e-01
5.974033198490685120e-02
2.514056302465872417e-01
1.307274794892329117e-01
-1.333447092268600365e-01
-2.554426029343008775e-01
-9.425981907761772360e-01
-8.815492439224568155e-01
-4.059353556434721066e-01
-4.442684152958081834e-01
-3.704417818913090521e-01
9.381416278698335998e-02
6.219585402191692980e-01
7.667723211279944273e-01
1.080535513097115707e+00
4.998606465117285125e-01
-1.290854803766004755e-01
-5.365517070514320697e-01
-5.791439955540277351e-01
-3.888984402424338627e-01
-2.880966907862908544e-01
8.387596213637771303e-02
1.278879935890598618e-01
2.088133417439915762e-01
1.572830053222469548e-02
2.159120564944241871e-01
7.128220890247066732e-01
1.090473713747721174e+00
2.017565860154219681e+00
1.239546723506806059e+00
-7.452539207141507527e-01
-2.075553064945220960e+00
-3.045237499854315466e+00
-2.727215079034934320e+00
-2.200490444552834823e+00
-1.733395013974369459e+00
-1.006486623530070679e+00
-4.442684152958081834e-01
-2.824177189859447545e-01
-7.509328925144969080e-01
-2.426649163835221945e-01
3.418495888334947136e-02
-6.987586669159645721e-03
3.039361193997885402e-01
2.457266584462411418e-01
3.947996682053259154e-01
2.925781757990963405e-01
3.351704643016920060e-01
3.550468656029032721e-01
3.266520066011728840e-01
4.444906714583541918e-01
4.515893862087867472e-01
3.791824957543741825e-01
1.633815673412229164e-01
2.428871725460680919e-01
2.343687148455489699e-01
1.860974545426072602e-01
2.542451161467602638e-01
2.230107712448567980e-01
1.406656801398385725e-01
1.449249089900981335e-01
1.307274794892329117e-01
6.257981788507989418e-02
1.264682506389733507e-01
8.955493393672379898e-02
1.151103070382811788e-01
1.065918493377620568e-01
8.529570508646423799e-02
7.819699033603162708e-02
9.381416278698335998e-02
1.222090217887137897e-01
8.671544803655076294e-02
6.116007493499337616e-02
1.572830053222469548e-02
3.276521593326294640e-02
3.560470183343598938e-02
9.097467688681032394e-02
1.619618243911363775e-01
1.875171974926937712e-01
1.307274794892329117e-01
1.349867083394924727e-01
1.761592538920015993e-01
1.250485076888868397e-01
1.193695358885407537e-01
9.807339163724292097e-02
8.671544803655076294e-02
1.009128775374159709e-01
1.037523634375890069e-01
1.094313352379350929e-01
1.236287647388003147e-01
1.534433666906172555e-01
1.193695358885407537e-01
8.387596213637771303e-02
7.251801853568554113e-02
2.708624413291686392e-02
3.560470183343598938e-02
3.276521593326294640e-02
-1.124681551941920932e-02
-4.248116042132268205e-02
-3.396270272080355312e-02
-2.828373092045746717e-02
-4.390090337140920007e-02
-3.396270272080355312e-02
-5.525884697210137197e-02
-7.939447712357224074e-02
-9.075242072426439877e-02
-1.347644521769465753e-01
-1.773567406795422130e-01
-1.503816246278983082e-01
-1.461223957776387472e-01
-1.305052233266870143e-01
-1.177275367759083036e-01
-1.191472797259948285e-01
-1.106288220254757065e-01
-1.645790541287635023e-01
-1.390236810272061363e-01
-1.645790541287635023e-01
-1.347644521769465753e-01
-7.371550532322615479e-02
-6.519704762270701892e-02
-3.680218862097659610e-02
-7.513524827331266587e-02
-1.035301072750430956e-01
-1.063695931752161455e-01
-1.248262515263409145e-01
-1.560605964282443803e-01
-1.674185400289365522e-01
-1.816159695298017740e-01
-9.501164957452397364e-02
-7.513524827331266587e-02
-1.248262515263409145e-01
-1.617395682285904801e-01
-2.114305714816187287e-01
-2.100108285315321899e-01
-8.081422007365875182e-02
-2.260475912011138122e-02
-7.371550532322615479e-02
-6.803653352288006884e-02
-6.945627647296657992e-02
-3.680218862097659610e-02
0.000000000000000000e+00
0.000000000000000000e+00
0.000000000000000000e+00
0.000000000000000000e+00
0.000000000000000000e+00
0.000000000000000000e+00
0.000000000000000000e+00
0.000000000000000000e+00
0.000000000000000000e+00
0.000000000000000000e+00
0.000000000000000000e+00
0.000000000000000000e+00
0.000000000000000000e+00
0.000000000000000000e+00
0.000000000000000000e+00
0.000000000000000000e+00
0.000000000000000000e+00
0.000000000000000000e+00
0.000000000000000000e+00
0.000000000000000000e+00
0.000000000000000000e+00
0.000000000000000000e+00
0.000000000000000000e+00
0.000000000000000000e+00
0.000000000000000000e+00
0.000000000000000000e+00
0.000000000000000000e+00
0.000000000000000000e+00
0.000000000000000000e+00
0.000000000000000000e+00
0.000000000000000000e+00
0.000000000000000000e+00
0.000000000000000000e+00
0.000000000000000000e+00
0.000000000000000000e+00
0.000000000000000000e+00
0.000000000000000000e+00
0.000000000000000000e+00
0.000000000000000000e+00
0.000000000000000000e+00
0.000000000000000000e+00
0.000000000000000000e+00
0.000000000000000000e+00
0.000000000000000000e+00
0.000000000000000000e+00
0.000000000000000000e+00
0.000000000000000000e+00
0.000000000000000000e+00
0.000000000000000000e+00
0.000000000000000000e+00
0.000000000000000000e+00
0.000000000000000000e+00
0.000000000000000000e+00
0.000000000000000000e+00
0.000000000000000000e+00
0.000000000000000000e+00
0.000000000000000000e+00
0.000000000000000000e+00
0.000000000000000000e+00
0.000000000000000000e+00
0.000000000000000000e+00
0.000000000000000000e+00
0.000000000000000000e+00
0.000000000000000000e+00
0.000000000000000000e+00
0.000000000000000000e+00
0.000000000000000000e+00
0.000000000000000000e+00
0.000000000000000000e+00
0.000000000000000000e+00
0.000000000000000000e+00
0.000000000000000000e+00
0.000000000000000000e+00
0.000000000000000000e+00
0.000000000000000000e+00
0.000000000000000000e+00
0.000000000000000000e+00
0.000000000000000000e+00
-4.148100768986603612e-03
-3.747010107415686408e-01
-8.219200400188229061e-01
-6.288349988070559560e-01
-1.092090790753891816e-01
1.619618243911363775e-01
3.735035239540280827e-01
4.956014176614689237e-01
3.593060944531628609e-01
-1.124681551941920932e-02
-5.099961812184181098e-02
4.980213133430120426e-02
1.676407961914824774e-01
9.513389046392421999e-01
1.869912593345221641e+00
1.794666216990635998e+00
8.590556128836183136e-01
1.530871031359481689e-03
-7.963646669172654846e-01
-9.880299651789459237e-01
-7.069208610618146205e-01
-4.144538133439912286e-01
1.065918493377620568e-01
-4.045156126933855956e-01
-9.937089369792919680e-01
-1.183954492290885785e+00
-1.032041996631628100e+00
-2.966151484868099764e-01
-3.680218862097659610e-02
8.590556128836183136e-01
1.832999276642972131e+00
1.466705595520649608e+00
6.915259447734088960e-01
-2.469241452337817555e-01
-5.422306788517781140e-01
-5.038976191994420928e-01
-7.083406040119011315e-01
-3.292692363388000087e-01
-1.319249662767735254e-01
-6.377730467262049396e-02
4.980213133430120426e-02
3.692442951037685495e-01
1.618618091179907292e+00
1.783308273389943910e+00
3.025163764497019736e-01
-5.422306788517781140e-01
-8.219200400188229061e-01
-9.142033317744467924e-01
-4.911199326486633820e-01
-3.448864087897517416e-01
2.868992039987502407e-01
6.858469729730627407e-01
3.351704643016920060e-01
5.367739632139780781e-01
7.440564339266100280e-01
3.962194111554124265e-01
-9.785113547469700968e-02
-2.937756625866369542e-01
-5.990203968552390013e-01
-8.219200400188229061e-01
-7.097603469619876426e-01
-6.103783404559312009e-01
-2.951954055367234653e-01
-4.816013222166876800e-02
1.818382256923476714e-01
3.820219816545472047e-01
7.284392614756582951e-01
1.414175106367448143e+00
2.334168538023514206e+00
2.505957434983983045e+00
7.539946345772157166e-01
9.925114501917513543e-01
2.412254400278272648e+00
9.428204469387230224e-01
-5.166753057502208035e-01
-1.561606117013900397e+00
-2.931658063847393692e+00
-3.651467739541260027e+00
-3.556344961885463007e+00
-2.593759241726801168e+00
-1.733395013974369459e+00
-1.311731357798672670e+00
-9.937089369792919680e-01
-7.040813751616415983e-01
2.950613981446002961e-03
3.337507213516054394e-01
6.858469729730627407e-01
1.228188779906113748e+00
1.476643796171255296e+00
1.563248116126533027e+00
1.378681532615285033e+00
1.404236905716842454e+00
1.110350115048932551e+00
9.513389046392421999e-01
7.369577191761774726e-01
1.875171974926937712e-01
-7.513524827331266587e-02
3.276521593326294640e-02
4.444906714583541918e-01
9.428204469387230224e-01
6.858469729730627407e-01
-4.144538133439912286e-01
-1.357163132201441469e+00
-1.164078090989674630e+00
-7.850067233165733960e-01
-1.071794799234050632e+00
-4.414289293956351057e-01
-1.120485649755622315e-01
-7.229576237313962983e-02
1.591223384909633554e-01
-7.087601942305310487e-02
-2.951954055367234653e-01
-4.925396755987498931e-01
-2.171095432819648008e-01
2.343687148455489699e-01
6.744890293723706520e-01
5.992426530177850097e-01
5.467121638645836557e-01
1.030844509844087487e+00
1.801764931741068665e+00
1.770530586839165199e+00
7.667723211279944273e-01
1.860974545426072602e-01
-5.195147916503938257e-01
-3.221705215883673978e-01
1.288881463205165251e-02
-7.850067233165733960e-01
-1.098769915285694676e+00
-9.993879087796381233e-01
-1.183954492290885785e+00
-9.880299651789459237e-01
-6.984024033612954430e-01
-7.892659521668329292e-01
-5.763045096538546019e-01
-7.963646669172654846e-01
-1.088831714635088987e+00
-3.945774120427799070e-01
2.002948840434724542e-01
3.905404393550663822e-01
6.049216248181310540e-01
4.217747842569698480e-01
2.230107712448567980e-01
2.258502571450298479e-01
2.329489718954624589e-01
1.633815673412229164e-01
9.949313458732944593e-02
2.925781757990963405e-01
2.073935987939050651e-01
1.946159122431263822e-01
1.832579686424342102e-01
1.278879935890598618e-01
1.619618243911363775e-01
1.094313352379350929e-01
1.151103070382811788e-01
5.974033198490685120e-02
2.850598708300338541e-02
1.998752938248425995e-02
2.282701528265729946e-02
3.844418773360903235e-02
1.004932873187860953e-02
-1.049498502251296206e-01
-9.501164957452397364e-02
-2.686398797037094568e-02
-4.532064632149572503e-02
-8.365370597383180173e-02
-1.063695931752161455e-01
-2.970347387054398866e-02
6.541930378525294409e-02
9.381416278698335998e-02
1.974553981432994321e-01
9.381416278698335998e-02
-3.680218862097659610e-02
2.950613981446002961e-03
-2.260475912011138122e-02
3.418495888334947136e-02
4.270341658386860029e-02
2.566650118283034243e-02
4.980213133430120426e-02
3.702444478352251434e-02
8.955493393672379898e-02
1.108510781880216178e-01
8.955493393672379898e-02
1.009128775374159709e-01
5.974033198490685120e-02
6.825878968542598013e-02
8.387596213637771303e-02
6.541930378525294409e-02
1.278879935890598618e-01
8.387596213637771303e-02
6.967853263551250509e-02
5.122187428438772228e-02
1.998752938248425995e-02
3.986393068369555731e-02
1.998752938248425995e-02
4.554290248404163632e-02
2.850598708300338541e-02
-3.538244567089007808e-02
7.209842831705566557e-03
1.288881463205165251e-02
-1.834553026985181676e-02
-1.266655846950573081e-02
-4.106141747123615710e-02
-4.248116042132268205e-02
-3.112321682063051015e-02
1.530871031359481689e-03
8.103647623620467699e-02
8.529570508646423799e-02
1.288881463205165251e-02
-3.680218862097659610e-02
-3.396270272080355312e-02
-5.525884697210137197e-02
-7.513524827331266587e-02
-1.063695931752161455e-01
-8.649319187400483777e-02
-6.945627647296657992e-02
-1.205670226760813535e-01
-1.361841951270330864e-01
-1.333447092268600365e-01
-1.219867656261678784e-01
-9.785113547469700968e-02
-8.933267777417788769e-02
-8.081422007365875182e-02
-7.229576237313962983e-02
-6.377730467262049396e-02
-8.507344892391832669e-02
-1.560605964282443803e-01
-1.404434239772926474e-01
0.000000000000000000e+00
0.000000000000000000e+00
0.000000000000000000e+00
0.000000000000000000e+00
0.000000000000000000e+00
0.000000000000000000e+00
0.000000000000000000e+00
0.000000000000000000e+00
0.000000000000000000e+00
0.000000000000000000e+00
0.000000000000000000e+00
0.000000000000000000e+00
0.000000000000000000e+00
0.000000000000000000e+00
0.000000000000000000e+00
0.000000000000000000e+00
0.000000000000000000e+00
0.000000000000000000e+00
0.000000000000000000e+00
0.000000000000000000e+00
0.000000000000000000e+00
0.000000000000000000e+00
0.000000000000000000e+00
0.000000000000000000e+00
0.000000000000000000e+00
0.000000000000000000e+00
0.000000000000000000e+00
0.000000000000000000e+00
0.000000000000000000e+00
0.000000000000000000e+00
0.000000000000000000e+00
0.000000000000000000e+00
0.000000000000000000e+00
0.000000000000000000e+00
0.000000000000000000e+00
0.000000000000000000e+00
0.000000000000000000e+00
0.000000000000000000e+00
0.000000000000000000e+00
0.000000000000000000e+00
0.000000000000000000e+00
0.000000000000000000e+00
0.000000000000000000e+00
0.000000000000000000e+00
0.000000000000000000e+00
0.000000000000000000e+00
0.000000000000000000e+00
0.000000000000000000e+00
0.000000000000000000e+00
0.000000000000000000e+00
0.000000000000000000e+00
0.000000000000000000e+00
0.000000000000000000e+00
0.000000000000000000e+00
0.000000000000000000e+00
0.000000000000000000e+00
0.000000000000000000e+00
0.000000000000000000e+00
0.000000000000000000e+00
0.000000000000000000e+00
0.000000000000000000e+00
0.000000000000000000e+00
0.000000000000000000e+00
0.000000000000000000e+00
0.000000000000000000e+00
0.000000000000000000e+00
0.000000000000000000e+00
0.000000000000000000e+00
0.000000000000000000e+00
0.000000000000000000e+00
0.000000000000000000e+00
0.000000000000000000e+00
0.000000000000000000e+00
0.000000000000000000e+00
0.000000000000000000e+00
0.000000000000000000e+00
0.000000000000000000e+00
0.000000000000000000e+00
0.000000000000000000e+00
0.000000000000000000e+00
0.000000000000000000e+00
0.000000000000000000e+00
0.000000000000000000e+00
0.000000000000000000e+00
0.000000000000000000e+00
0.000000000000000000e+00
0.000000000000000000e+00
0.000000000000000000e+00
0.000000000000000000e+00
0.000000000000000000e+00
0.000000000000000000e+00
0.000000000000000000e+00
0.000000000000000000e+00
0.000000000000000000e+00
0.000000000000000000e+00
0.000000000000000000e+00
0.000000000000000000e+00
0.000000000000000000e+00
0.000000000000000000e+00
0.000000000000000000e+00
0.000000000000000000e+00
0.000000000000000000e+00
0.000000000000000000e+00
0.000000000000000000e+00
0.000000000000000000e+00
0.000000000000000000e+00
0.000000000000000000e+00
0.000000000000000000e+00
0.000000000000000000e+00
0.000000000000000000e+00
0.000000000000000000e+00
-6.174770552063637563e-01
-9.937089369792919680e-01
-1.060436855633358544e+00
-9.766720215782537240e-01
-3.576640953405303969e-01
1.080535513097115707e+00
1.875591565145567685e+00
9.229440456375117563e-01
-5.365517070514320697e-01
-1.351484160401095425e+00
-1.807221647378868479e+00
-1.646790694019091728e+00
-7.282170053131125087e-01
-6.728470302597381325e-01
-1.044819683182406811e+00
-1.819999333929647189e+00
-2.052837177743836783e+00
-7.622908361151889967e-01
-3.235902645384539089e-01
-4.314907287450294726e-01
2.424675823274382094e-02
7.213405467252258507e-01
9.030676443363004902e-01
1.043622196394865975e+00
1.135905488150489973e+00
9.044873872863870012e-01
1.127387030449970906e+00
1.869912593345221641e+00
2.413674143228359270e+00
2.153861183362526077e+00
1.979232800501883771e+00
1.517816341723764451e+00
1.222090217887137897e-01
-7.168590617124203090e-01
-1.044819683182406811e+00
-1.080313256934569699e+00
-8.730307862219376380e-01
-8.858084727727163488e-01
-9.496969055266097914e-01
-8.517346419706398608e-01
-8.091423534680441954e-01
-6.984024033612954430e-01
-1.986528849308400180e-01
2.514056302465872417e-01
5.566503645151893442e-01
5.509713927148432999e-01
2.230107712448567980e-01
3.152940630004806843e-01
4.189352983567967703e-01
3.010966334996154625e-01
3.479481508524706612e-01
5.637490792656220107e-01
8.704135564843105133e-01
9.797337636409726436e-01
8.973886725359543348e-01
9.101663590867330456e-01
5.268357625633723895e-01
-3.548246094403573747e-01
-6.288349988070559560e-01
1.430855758213817400e-02
1.111280812729603911e-04
-7.679698079155351520e-01
-1.243583696194519694e+00
-6.146375693061907342e-01
-1.347644521769465753e-01
1.111280812729603911e-04
3.522073797027302500e-01
9.381416278698335998e-02
1.946159122431263822e-01
4.487499003086137250e-01
5.264161723447424723e-02
-2.597018317845604662e-01
-2.085910855814456788e-01
9.949313458732944593e-02
3.962194111554124265e-01
4.075773547561046262e-01
1.062078854745990952e+00
1.702382925235012223e+00
1.239546723506806059e+00
-3.179112927381078091e-01
-1.621235320917534306e+00
-2.339625253661314019e+00
-3.001225468401633290e+00
-3.069373130005786265e+00
-2.200490444552834823e+00
-3.718615248413955632e-01
5.381937061640645892e-01
1.690605391415689884e-01
-2.455044022836952167e-01
-1.816159695298017740e-01
-1.858751983800613350e-01
-2.895164337363773654e-01
9.381416278698335998e-02
5.353542202638915670e-01
7.284392614756582951e-01
8.235620391314553146e-01
1.096152685548067440e+00
1.072017055396596419e+00
7.781302647286866270e-01
1.026585280993827842e+00
1.311953613961218679e+00
1.201213663854469926e+00
1.054980139995558286e+00
5.722675369661410771e-01
5.410331920642376113e-01
6.489336562708132305e-01
1.264682506389733507e-01
2.542451161467602638e-01
1.165300499883677038e-01
-3.108125779876751982e-01
-2.270477439325704616e-01
-5.905019391547198238e-01
-8.659320714715050826e-01
-8.219200400188229061e-01
-1.460804367557757333e+00
-1.499137427210093465e+00
-7.282170053131125087e-01
-4.116143274438182065e-01
-2.341464586830030448e-01
-8.081422007365875182e-02
1.577025955408768165e-01
3.962194111554124265e-01
1.449249089900981335e-01
-4.002563838431260068e-01
-3.093928350375886871e-01
-3.803799825419146852e-01
-3.704417818913090521e-01
-1.887146842802343849e-01
-3.680218862097659610e-02
2.059738558438185541e-01
1.998752938248425995e-02
-7.229576237313962983e-02
6.399956083516641914e-02
3.621455803533358830e-01
5.268357625633723895e-01
6.247980261193423202e-01
3.905404393550663822e-01
6.541930378525294409e-02
-5.383910402201485396e-02
-1.148880508757352675e-01
-1.006906213748700596e-01
-7.513524827331266587e-02
-5.951807582236093991e-02
-1.901344272303208960e-01
-2.402450207019790271e-02
7.393776148577206608e-02
-5.525884697210137197e-02
-4.390090337140920007e-02
-4.248116042132268205e-02
9.949313458732944593e-02
1.236287647388003147e-01
7.677724738594510212e-02
6.399956083516641914e-02
2.424675823274382094e-02
3.702444478352251434e-02
8.629585781792088045e-03
1.998752938248425995e-02
1.530871031359481689e-03
7.209842831705566557e-03
5.790099881619045936e-03
3.844418773360903235e-02
8.813519098663727402e-02
1.250485076888868397e-01
1.420854230899250836e-01
9.381416278698335998e-02
1.321472224393194506e-01
6.967853263551250509e-02
6.257981788507989418e-02
9.381416278698335998e-02
9.097467688681032394e-02
9.381416278698335998e-02
7.535750443585859104e-02
9.097467688681032394e-02
8.529570508646423799e-02
8.529570508646423799e-02
6.967853263551250509e-02
8.671544803655076294e-02
9.381416278698335998e-02
5.690084608473380823e-02
6.257981788507989418e-02
7.535750443585859104e-02
2.282701528265729946e-02
2.708624413291686392e-02
2.850598708300338541e-02
-1.266655846950573081e-02
2.708624413291686392e-02
1.430855758213817400e-02
-3.822193157106311412e-02
-1.021103643249565707e-01
-8.649319187400483777e-02
-4.957987517175528602e-02
-8.649319187400483777e-02
-5.099961812184181098e-02
2.140727233257078144e-02
2.566650118283034243e-02
1.288881463205165251e-02
7.209842831705566557e-03
-1.266655846950573081e-02
-1.834553026985181676e-02
-1.390236810272061363e-01
-2.710597753852526104e-01
-2.597018317845604662e-01
-1.929739131304939459e-01
-1.333447092268600365e-01
-1.461223957776387472e-01
-1.447026528275522084e-01
-1.432829098774656973e-01
-1.191472797259948285e-01
-8.081422007365875182e-02
-1.550604436967877378e-02
1.530871031359481689e-03
-6.235756172253398288e-02
0.000000000000000000e+00
0.000000000000000000e+00
0.000000000000000000e+00
0.000000000000000000e+00
0.000000000000000000e+00
0.000000000000000000e+00
0.000000000000000000e+00
0.000000000000000000e+00
0.000000000000000000e+00
0.000000000000000000e+00
0.000000000000000000e+00
0.000000000000000000e+00
0.000000000000000000e+00
0.000000000000000000e+00
0.000000000000000000e+00
0.000000000000000000e+00
0.000000000000000000e+00
0.000000000000000000e+00
0.000000000000000000e+00
0.000000000000000000e+00
0.000000000000000000e+00
0.000000000000000000e+00
0.000000000000000000e+00
0.000000000000000000e+00
0.000000000000000000e+00
0.000000000000000000e+00
0.000000000000000000e+00
0.000000000000000000e+00
0.000000000000000000e+00
0.000000000000000000e+00
0.000000000000000000e+00
0.000000000000000000e+00
0.000000000000000000e+00
0.000000000000000000e+00
0.000000000000000000e+00
0.000000000000000000e+00
0.000000000000000000e+00
0.000000000000000000e+00
0.000000000000000000e+00
0.000000000000000000e+00
0.000000000000000000e+00
0.000000000000000000e+00
0.000000000000000000e+00
0.000000000000000000e+00
0.000000000000000000e+00
0.000000000000000000e+00
0.000000000000000000e+00
0.000000000000000000e+00
0.000000000000000000e+00
0.000000000000000000e+00
0.000000000000000000e+00
0.000000000000000000e+00
0.000000000000000000e+00
0.000000000000000000e+00
0.000000000000000000e+00
0.000000000000000000e+00
0.000000000000000000e+00
0.000000000000000000e+00
0.000000000000000000e+00
0.000000000000000000e+00
0.000000000000000000e+00
0.000000000000000000e+00
0.000000000000000000e+00
0.000000000000000000e+00
0.000000000000000000e+00
0.000000000000000000e+00
0.000000000000000000e+00
0.000000000000000000e+00
0.000000000000000000e+00
0.000000000000000000e+00
0.000000000000000000e+00
0.000000000000000000e+00
0.000000000000000000e+00
0.000000000000000000e+00
0.000000000000000000e+00
0.000000000000000000e+00
0.000000000000000000e+00
0.000000000000000000e+00
0.000000000000000000e+00
0.000000000000000000e+00
0.000000000000000000e+00
0.000000000000000000e+00
0.000000000000000000e+00
0.000000000000000000e+00
0.000000000000000000e+00
0.000000000000000000e+00
0.000000000000000000e+00
0.000000000000000000e+00
0.000000000000000000e+00
0.000000000000000000e+00
0.000000000000000000e+00
0.000000000000000000e+00
0.000000000000000000e+00
0.000000000000000000e+00
0.000000000000000000e+00
0.000000000000000000e+00
0.000000000000000000e+00
0.000000000000000000e+00
0.000000000000000000e+00
0.000000000000000000e+00
0.000000000000000000e+00
0.000000000000000000e+00
0.000000000000000000e+00
0.000000000000000000e+00
0.000000000000000000e+00
0.000000000000000000e+00
-9.880299651789459237e-01
-1.284756241747028849e+00
-1.161238605089501608e+00
-3.292692363388000087e-01
7.781302647286866270e-01
6.333164838198614977e-01
-3.093928350375886871e-01
-4.442684152958081834e-01
-2.497636311339548054e-01
-9.217216367435092372e-02
3.110348341502211511e-01
6.460941703706402084e-01
4.799842452105171908e-01
1.110350115048932551e+00
2.856633943655353836e+00
2.477562575982252824e+00
1.875171974926937712e-01
-1.032041996631628100e+00
-2.015923861041587273e+00
-1.831357277530339500e+00
-1.276237784046509782e+00
-1.050498654982752855e+00
-1.091671200535262010e+00
-2.108207152797211048e+00
-1.865431108332415988e+00
-1.034881482531801122e+00
2.424675823274382094e-02
5.680083081158815439e-01
6.915259447734088960e-01
1.135905488150489973e+00
1.226769036956027348e+00
1.184176748453431793e+00
1.090473713747721174e+00
1.425533049968140231e+00
1.673988066233281780e+00
1.947998455599980305e+00
1.578865288577484760e+00
4.515893862087867472e-01
-4.144538133439912286e-01
-1.039140711382060767e+00
-5.337122211512590475e-01
-2.014923708310130679e-01
-5.337122211512590475e-01
-7.708092938157081742e-01
-1.142781946738376631e+00
-1.172596548690193696e+00
-8.119818393682172175e-01
-3.519851235401843526e-01
6.967853263551250509e-02
4.217747842569698480e-01
7.781302647286866270e-01
8.377594686323205364e-01
7.369577191761774726e-01
7.440564339266100280e-01
1.320472071661737745e+00
2.246144475118149852e+00
1.320472071661737745e+00
9.626968482399343996e-01
1.506458398123072140e+00
5.992426530177850097e-01
-4.300709857949429615e-01
-1.348644674500922402e+00
-1.335866987950143692e+00
-1.239324467344260272e+00
-1.896665453234319454e+00
-2.264378877306728377e+00
-2.562524896824897702e+00
-2.727215079034934320e+00
-1.249262667994865739e+00
2.542451161467602638e-01
-4.059353556434721066e-01
-8.730307862219376380e-01
-4.854409608483172822e-01
4.317129849075754811e-01
1.216830836305421659e+00
1.517816341723764451e+00
1.370163074914765966e+00
1.043622196394865975e+00
9.697955629903669550e-01
5.935636812174388544e-01
8.590556128836183136e-01
7.355379762260909615e-01
3.110348341502211511e-01
5.264161723447424723e-02
-1.716777688791961132e-01
2.798004892483176298e-01
2.424675823274382094e-02
-2.653808035849065106e-01
-1.589000823284174302e-01
-1.347644521769465753e-01
2.424675823274382094e-02
2.173317994445107260e-01
1.591223384909633554e-01
-7.655499122339919083e-02
2.272700000951163590e-01
-3.079730920875021760e-01
-1.225127037843394939e+00
-1.071794799234050632e+00
-5.890821962046333127e-01
-6.803653352288006884e-02
3.678245521536820384e-01
6.617113428215919413e-01
4.444906714583541918e-01
1.534433666906172555e-01
1.818382256923476714e-01
9.949313458732944593e-02
4.980213133430120426e-02
-4.148100768986603612e-03
2.372082007457220199e-01
2.542451161467602638e-01
3.791824957543741825e-01
3.152940630004806843e-01
1.288881463205165251e-02
2.514056302465872417e-01
2.656030597474524635e-01
1.860974545426072602e-01
2.088133417439915762e-01
1.406656801398385725e-01
-1.532211105280713304e-01
-3.519851235401843526e-01
-2.951954055367234653e-01
-2.483438881838682666e-01
-2.895164337363773654e-01
-1.021103643249565707e-01
1.080115922878485818e-01
3.134547298317642838e-02
5.406136018456076525e-02
2.992573003308990690e-02
-1.308614868813560853e-03
-3.538244567089007808e-02
-4.816013222166876800e-02
-7.371550532322615479e-02
-5.667858992218789693e-02
-2.118501617002485973e-02
-7.371550532322615479e-02
-1.262459944764274256e-01
-1.872949413301478461e-01
-1.929739131304939459e-01
-7.655499122339919083e-02
1.364064512895790116e-01
1.761592538920015993e-01
1.080115922878485818e-01
9.239441983689684890e-02
1.633815673412229164e-01
2.343687148455489699e-01
9.665364868715640989e-02
-7.939447712357224074e-02
-1.290854803766004755e-01
-2.213687721322243618e-01
-2.540228599842143664e-01
-2.085910855814456788e-01
-1.603198252785039413e-01
-1.560605964282443803e-01
-5.237740205006533589e-01
-7.651303220153620188e-01
-5.422306788517781140e-01
-2.171095432819648008e-01
-5.667858992218789693e-02
-1.929739131304939459e-01
-1.986528849308400180e-01
6.967853263551250509e-02
1.222090217887137897e-01
6.399956083516641914e-02
1.193695358885407537e-01
9.097467688681032394e-02
9.381416278698335998e-02
1.236287647388003147e-01
1.662210532413959385e-01
1.761592538920015993e-01
1.704802820916555273e-01
1.875171974926937712e-01
1.761592538920015993e-01
1.619618243911363775e-01
1.449249089900981335e-01
1.577025955408768165e-01
1.420854230899250836e-01
1.548631096407037666e-01
1.179497929384542287e-01
1.009128775374159709e-01
7.961673328611815204e-02
5.974033198490685120e-02
5.264161723447424723e-02
2.992573003308990690e-02
3.560470183343598938e-02
1.111280812729603911e-04
2.140727233257078144e-02
5.790099881619045936e-03
4.270341658386860029e-02
1.307274794892329117e-01
1.946159122431263822e-01
1.577025955408768165e-01
9.381416278698335998e-02
8.955493393672379898e-02
2.566650118283034243e-02
0.000000000000000000e+00
0.000000000000000000e+00
0.000000000000000000e+00
0.000000000000000000e+00
0.000000000000000000e+00
0.000000000000000000e+00
0.000000000000000000e+00
0.000000000000000000e+00
0.000000000000000000e+00
0.000000000000000000e+00
0.000000000000000000e+00
0.000000000000000000e+00
0.000000000000000000e+00
0.000000000000000000e+00
0.000000000000000000e+00
0.000000000000000000e+00
0.000000000000000000e+00
0.000000000000000000e+00
0.000000000000000000e+00
0.000000000000000000e+00
-5.635268231030760022e-01
-1.220867808993135295e+00
-1.297533928297807559e+00
-1.432409508556027111e+00
-1.131424003137684542e+00
-8.091423534680441954e-01
-6.614890866590459328e-01
-9.766720215782537240e-01
-8.957466734233220373e-01
-6.969826604112089319e-01
-2.653808035849065106e-01
5.406136018456076525e-02
2.372082007457220199e-01
3.380099502018650282e-01
2.627635738472793858e-01
3.152940630004806843e-01
2.897386898989233184e-01
4.885027029110363128e-01
4.885027029110363128e-01
3.124545771003076622e-01
1.548631096407037666e-01
9.239441983689684890e-02
1.676407961914824774e-01
2.457266584462411418e-01
2.045541128937320152e-01
1.264682506389733507e-01
1.236287647388003147e-01
1.108510781880216178e-01
6.967853263551250509e-02
-2.544424502028442420e-02
3.418495888334947136e-02
4.412315953395511831e-02
3.276521593326294640e-02
4.980213133430120426e-02
1.430855758213817400e-02
7.209842831705566557e-03
1.530871031359481689e-03
3.276521593326294640e-02
8.103647623620467699e-02
1.080115922878485818e-01
1.193695358885407537e-01
1.420854230899250836e-01
1.250485076888868397e-01
1.548631096407037666e-01
8.955493393672379898e-02
-1.308614868813560853e-03
6.825878968542598013e-02
2.708624413291686392e-02
-5.099961812184181098e-02
-6.803653352288006884e-02
-1.035301072750430956e-01
-1.361841951270330864e-01
-7.371550532322615479e-02
-5.567843719073125100e-03
3.134547298317642838e-02
5.790099881619045936e-03
-8.407329619246168076e-03
4.980213133430120426e-02
3.560470183343598938e-02
3.844418773360903235e-02
-8.407329619246168076e-03
-7.371550532322615479e-02
-3.538244567089007808e-02
-2.970347387054398866e-02
-8.407329619246168076e-03
2.424675823274382094e-02
-8.407329619246168076e-03
-1.035301072750430956e-01
-1.901344272303208960e-01
-1.631593111786769912e-01
-1.631593111786769912e-01
-4.816013222166876800e-02
1.193695358885407537e-01
1.364064512895790116e-01
2.570846020469333415e-01
6.546126280711592749e-01
8.051053807803304485e-01
1.946159122431263822e-01
-4.215525280944238395e-01
-6.614890866590459328e-01
-5.919216821048063348e-01
-4.272314998947699394e-01
-4.556263588965003275e-01
-3.179112927381078091e-01
-1.532211105280713304e-01
4.838238838421467930e-02
-3.964167452114963908e-02
-1.063695931752161455e-01
2.045541128937320152e-01
1.690605391415689884e-01
1.562828525907903054e-01
4.132563265564506705e-01
5.992426530177850097e-01
6.744890293723706520e-01
9.158453308870792009e-01
4.998606465117285125e-01
-7.509328925144969080e-01
-8.957466734233220373e-01
7.209842831705566557e-03
1.009548365592789487e+00
1.198374177954296904e+00
6.744890293723706520e-01
3.152940630004806843e-01
-6.004401398053255123e-01
-1.528952029161910309e+00
-2.189132500952142735e+00
-1.865431108332415988e+00
-3.732812677914821298e-01
7.355379762260909615e-01
5.381937061640645892e-01
-5.706255378535085576e-01
-1.041980197282233789e+00
-1.430989765605940489e+00
-9.142033317744467924e-01
2.443069154961546308e-01
1.425533049968140231e+00
2.693363504395403840e+00
2.505957434983983045e+00
1.925282568398595906e+00
9.882522213414917100e-01
-5.195147916503938257e-01
-9.014256452236680817e-01
-1.222287551943221917e+00
-1.235065238494000628e+00
-4.669843024971925272e-01
-4.144538133439912286e-01
-7.211182905626798423e-01
-9.667338209276481464e-01
-1.264879840445817472e+00
-1.377039533502652846e+00
-9.071046170240142370e-01
-9.827072569332689564e-03
4.870829599609498017e-01
2.868992039987502407e-01
-2.710597753852526104e-01
-3.477258946899247638e-01
-9.927087842478353463e-02
-2.728357818900082124e-03
4.487499003086137250e-01
6.673903146219379856e-01
4.657868157096519690e-01
3.365902072517785171e-01
6.489336562708132305e-01
9.130058449869060677e-01
7.582538634274752498e-01
1.134485745200403350e+00
1.774789815689424621e+00
1.645593207231551336e+00
9.513389046392421999e-01
3.621455803533358830e-01
-1.333447092268600365e-01
3.986393068369555731e-02
-8.649319187400483777e-02
-4.300709857949429615e-01
5.268357625633723895e-01
1.015227337393135754e+00
5.410331920642376113e-01
-1.589000823284174302e-01
-5.706255378535085576e-01
1.998752938248425995e-02
-1.021103643249565707e-01
-1.460804367557757333e+00
-1.460804367557757333e+00
-7.282170053131125087e-01
-3.519851235401843526e-01
5.055396183120746123e-01
6.148598254687367426e-01
2.570846020469333415e-01
8.955493393672379898e-02
-3.377876940393191307e-01
-3.718615248413955632e-01
-7.371550532322615479e-02
-1.050498654982752855e+00
-1.727716042174023414e+00
1.974553981432994321e-01
6.645508287217649634e-01
-2.118501617002485973e-02
6.219585402191692980e-01
8.264015250316283367e-01
1.147263431751182061e+00
1.341768215913035522e+00
1.610099633479388226e+00
1.702382925235012223e+00
7.539946345772157166e-01
-7.026616322115550872e-01
-9.354994760257445696e-01
-3.874786972923472961e-01
-9.411784478260907250e-01
-8.588333567210725272e-01
-9.284007612753120142e-01
-8.900677016229759930e-01
-4.957987517175528602e-02
-1.106288220254757065e-01
-3.888984402424338627e-01
-1.328768273199711025e+00
-1.060436855633358544e+00
-1.305052233266870143e-01
1.491841378403576945e-01
3.962194111554124265e-01
3.664048092035954718e-01
3.962194111554124265e-01
2.187515423945972370e-01
2.755412603980580966e-01
3.564666085529897832e-01
-9.827072569332689564e-03
-7.452539207141507527e-01
-6.813654879602571990e-01
-7.282170053131125087e-01
-1.068955313333877610e+00
-6.657483155093054661e-01
-4.414289293956351057e-01
2.708624413291686392e-02
4.075773547561046262e-01
3.152940630004806843e-01
5.935636812174388544e-01
1.165720090102306816e+00
1.399977676866583032e+00
7.667723211279944273e-01
-6.987586669159645721e-03
-5.308727352510859143e-01
-8.602530996711590383e-01
-9.795115074784267462e-01
-9.014256452236680817e-01
-4.002563838431260068e-01
-4.816013222166876800e-02
1.832579686424342102e-01
4.615275868593924358e-01
5.935636812174388544e-01
7.170813178749662065e-01
1.414175106367448143e+00
1.384360504415631299e+00
7.582538634274752498e-01
9.201045597373387341e-01
4.998606465117285125e-01
2.230107712448567980e-01
2.286897430452028979e-01
-3.463061517398382527e-01
-9.993879087796381233e-01
-1.348644674500922402e+00
-9.738325356780807018e-01
-5.479096506521242693e-01
-2.966151484868099764e-01
-2.185292862320513119e-01
-4.059353556434721066e-01
-4.045156126933855956e-01
-2.100108285315321899e-01
-1.692578731976529527e-02
1.988751410933859431e-01
3.891206964049798156e-01
3.678245521536820384e-01
5.694280510659680550e-01
5.268357625633723895e-01
2.443069154961546308e-01
1.931961692930398433e-01
1.108510781880216178e-01
1.491841378403576945e-01
1.520236237405307445e-01
9.381416278698335998e-02
-4.674038927158224305e-02
-1.408630141959225229e-02
4.412315953395511831e-02
-1.376039380771195975e-01
-1.503816246278983082e-01
-2.440846593336087056e-01
-7.939447712357224074e-02
8.955493393672379898e-02
-6.945627647296657992e-02
-4.385894434954620835e-01
-5.166753057502208035e-01
-7.229576237313962983e-02
-3.661825530410495189e-01
-9.071046170240142370e-01
-6.856247168105168432e-01
1.420854230899250836e-01
8.576358699335318025e-01
9.626968482399343996e-01
4.444906714583541918e-01
2.727017744978850744e-01
4.998606465117285125e-01
8.103647623620467699e-02
-3.789602395918281741e-01
-6.288349988070559560e-01
-7.055011181117281094e-01
-4.655645595471060161e-01
-2.455044022836952167e-01
-8.507344892391832669e-02
-6.093781877244745793e-02
-1.976527321993833824e-02
4.838238838421467930e-02
3.702444478352251434e-02
8.671544803655076294e-02
9.807339163724292097e-02
1.051721063876755319e-01
1.193695358885407537e-01
8.813519098663727402e-02
9.239441983689684890e-02
8.671544803655076294e-02
1.307274794892329117e-01
1.122708211381081428e-01
1.136905640881946677e-01
1.151103070382811788e-01
9.097467688681032394e-02
1.151103070382811788e-01
1.151103070382811788e-01
1.165300499883677038e-01
7.819699033603162708e-02
4.270341658386860029e-02
4.412315953395511831e-02
8.245621918629118807e-02
7.819699033603162708e-02
8.103647623620467699e-02
1.037523634375890069e-01
8.387596213637771303e-02
6.257981788507989418e-02
4.128367363378207533e-02
1.288881463205165251e-02
7.209842831705566557e-03
3.134547298317642838e-02
3.844418773360903235e-02
4.696264543412816128e-02
3.134547298317642838e-02
1.998752938248425995e-02
7.209842831705566557e-03
-3.822193157106311412e-02
-1.063695931752161455e-01
-1.006906213748700596e-01
-1.148880508757352675e-01
-1.063695931752161455e-01
-3.680218862097659610e-02
-6.519704762270701892e-02
-1.106288220254757065e-01
-7.513524827331266587e-02
-2.544424502028442420e-02
-7.087601942305310487e-02
-7.229576237313962983e-02
-5.525884697210137197e-02
-9.501164957452397364e-02
-9.501164957452397364e-02
-6.377730467262049396e-02
-7.513524827331266587e-02
-9.359190662443744868e-02
-5.951807582236093991e-02
-7.087601942305310487e-02
-1.347644521769465753e-01
-1.773567406795422130e-01
-1.376039380771195975e-01
-1.063695931752161455e-01
-8.507344892391832669e-02
-7.939447712357224074e-02
-1.063695931752161455e-01
-4.957987517175528602e-02
2.850598708300338541e-02
4.270341658386860029e-02
4.270341658386860029e-02
-9.827072569332689564e-03
-9.643139252461048472e-02
-1.205670226760813535e-01
-1.347644521769465753e-01
-5.951807582236093991e-02
2.992573003308990690e-02
9.097467688681032394e-02
1.364064512895790116e-01
7.819699033603162708e-02
7.109827558559901617e-02
2.850598708300338541e-02
-3.112321682063051015e-02
0.000000000000000000e+00
0.000000000000000000e+00
0.000000000000000000e+00
0.000000000000000000e+00
0.000000000000000000e+00
0.000000000000000000e+00
0.000000000000000000e+00
0.000000000000000000e+00
0.000000000000000000e+00
0.000000000000000000e+00
0.000000000000000000e+00
0.000000000000000000e+00
0.000000000000000000e+00
0.000000000000000000e+00
0.000000000000000000e+00
0.000000000000000000e+00
0.000000000000000000e+00
0.000000000000000000e+00
0.000000000000000000e+00
0.000000000000000000e+00
0.000000000000000000e+00
0.000000000000000000e+00
0.000000000000000000e+00
0.000000000000000000e+00
0.000000000000000000e+00
0.000000000000000000e+00
0.000000000000000000e+00
0.000000000000000000e+00
0.000000000000000000e+00
0.000000000000000000e+00
0.000000000000000000e+00
0.000000000000000000e+00
0.000000000000000000e+00
0.000000000000000000e+00
0.000000000000000000e+00
0.000000000000000000e+00
0.000000000000000000e+00
0.000000000000000000e+00
0.000000000000000000e+00
0.000000000000000000e+00
0.000000000000000000e+00
0.000000000000000000e+00
0.000000000000000000e+00
0.000000000000000000e+00
0.000000000000000000e+00
0.000000000000000000e+00
0.000000000000000000e+00
0.000000000000000000e+00
0.000000000000000000e+00
0.000000000000000000e+00
0.000000000000000000e+00
0.000000000000000000e+00
0.000000000000000000e+00
0.000000000000000000e+00
0.000000000000000000e+00
0.000000000000000000e+00
0.000000000000000000e+00
0.000000000000000000e+00
0.000000000000000000e+00
0.000000000000000000e+00
0.000000000000000000e+00
0.000000000000000000e+00
0.000000000000000000e+00
0.000000000000000000e+00
0.000000000000000000e+00
0.000000000000000000e+00
0.000000000000000000e+00
0.000000000000000000e+00
0.000000000000000000e+00
0.000000000000000000e+00
1.006708879692616465e+00
1.749234442587867422e+00
1.598741689878696137e+00
7.653525781779079162e-01
8.207225532312821814e-01
4.842434740607767796e-01
-3.562443523904438858e-01
-6.984024033612954430e-01
-9.071046170240142370e-01
-1.205250636542183562e+00
-9.071046170240142370e-01
-3.747010107415686408e-01
-3.576640953405303969e-01
-4.272314998947699394e-01
3.692442951037685495e-01
2.060158148656815680e+00
2.480402061882425624e+00
1.124547544549797884e+00
8.103647623620467699e-02
-4.726632742975385715e-01
-8.219200400188229061e-01
-8.233397829689094172e-01
-7.211182905626798423e-01
-9.071046170240142370e-01
-1.276237784046509782e+00
