0.000000000000000000e+00
0.000000000000000000e+00
0.000000000000000000e+00
0.000000000000000000e+00
0.000000000000000000e+00
0.000000000000000000e+00
0.000000000000000000e+00
0.000000000000000000e+00
0.000000000000000000e+00
0.000000000000000000e+00
0.000000000000000000e+00
0.000000000000000000e+00
0.000000000000000000e+00
0.000000000000000000e+00
0.000000000000000000e+00
0.000000000000000000e+00
0.000000000000000000e+00
0.000000000000000000e+00
0.000000000000000000e+00
0.000000000000000000e+00
0.000000000000000000e+00
0.000000000000000000e+00
0.000000000000000000e+00
0.000000000000000000e+00
0.000000000000000000e+00
0.000000000000000000e+00
0.000000000000000000e+00
0.000000000000000000e+00
0.000000000000000000e+00
0.000000000000000000e+00
0.000000000000000000e+00
0.000000000000000000e+00
0.000000000000000000e+00
0.000000000000000000e+00
0.000000000000000000e+00
0.000000000000000000e+00
0.000000000000000000e+00
0.000000000000000000e+00
0.000000000000000000e+00
0.000000000000000000e+00
0.000000000000000000e+00
0.000000000000000000e+00
0.000000000000000000e+00
0.000000000000000000e+00
0.000000000000000000e+00
0.000000000000000000e+00
0.000000000000000000e+00
0.000000000000000000e+00
0.000000000000000000e+00
0.000000000000000000e+00
0.000000000000000000e+00
0.000000000000000000e+00
0.000000000000000000e+00
0.000000000000000000e+00
0.000000000000000000e+00
0.000000000000000000e+00
0.000000000000000000e+00
0.000000000000000000e+00
0.000000000000000000e+00
0.000000000000000000e+00
0.000000000000000000e+00
0.000000000000000000e+00
0.000000000000000000e+00
0.000000000000000000e+00
0.000000000000000000e+00
0.000000000000000000e+00
0.000000000000000000e+00
0.000000000000000000e+00
0.000000000000000000e+00
0.000000000000000000e+00
0.000000000000000000e+00
0.000000000000000000e+00
0.000000000000000000e+00
0.000000000000000000e+00
0.000000000000000000e+00
0.000000000000000000e+00
0.000000000000000000e+00
0.000000000000000000e+00
0.000000000000000000e+00
0.000000000000000000e+00
0.000000000000000000e+00
0.000000000000000000e+00
0.000000000000000000e+00
0.000000000000000000e+00
0.000000000000000000e+00
0.000000000000000000e+00
0.000000000000000000e+00
0.000000000000000000e+00
0.000000000000000000e+00
0.000000000000000000e+00
0.000000000000000000e+00
0.000000000000000000e+00
0.000000000000000000e+00
0.000000000000000000e+00
0.000000000000000000e+00
0.000000000000000000e+00
0.000000000000000000e+00
0.000000000000000000e+00
4.592778256148978278e-01
5.115520223770416708e-01
5.289767546310896185e-01
6.313470566236212278e-01
5.747166767979654534e-01
3.743322558764141661e-01
1.521669196373029720e-01
-1.179164303004400088e-01
-2.747390205868714408e-01
-3.771093225794029946e-01
-3.248351258172592071e-01
-2.355333730152635585e-01
-2.093962746341916648e-01
-2.072181831024356713e-01
-1.462316202132679099e-01
-2.208040290317636600e-02
-9.011853712640413919e-03
-5.475177587951624014e-02
-1.135602472369280219e-01
-1.396973456179999296e-01
-7.653269119707616086e-02
-6.564223353829619356e-02
-9.613551498288008812e-02
-1.440535286815119165e-01
-1.070259726416600554e-01
-9.613551498288008812e-02
-9.177933191936811508e-02
-6.564223353829619356e-02
-5.692986741127223360e-02
-7.217650813356418782e-02
-1.244507048957079892e-01
-1.701906270625838102e-01
-1.309849794909759557e-01
-1.396973456179999296e-01
-1.484097117450239034e-01
-2.425849443493235599e-02
-1.554612830790838909e-02
6.234787009651528156e-03
-2.425849443493235599e-02
-6.128605047478421358e-02
7.375562449408726295e-02
6.286516683530730953e-02
6.504325836706330299e-02
1.608792857643269458e-01
1.390983704467670112e-01
9.771463134340317713e-02
-4.655670649128430469e-03
-2.477579117372439178e-03
4.544043458125938267e-02
1.494715313667549506e-02
3.672806845423541577e-02
-9.011853712640413919e-03
-2.425849443493235599e-02
-6.833762180884422194e-03
1.059097007316351161e-02
3.019379385896743886e-02
6.234787009651528156e-03
-9.011853712640413919e-03
7.811180755759924987e-02
5.415280070828334957e-02
2.365951926369946196e-02
1.042489059386711436e-01
6.939944143057528991e-02
6.504325836706330299e-02
5.415280070828334957e-02
8.682417368462320983e-02
1.107831805339391240e-01
1.494715313667549506e-02
1.238517297244750709e-01
1.303860043197430374e-01
1.173174551292071044e-01
1.107831805339391240e-01
2.148142773194347196e-02
2.148142773194347196e-02
1.276906160491950333e-02
0.000000000000000000e+00
0.000000000000000000e+00
0.000000000000000000e+00
0.000000000000000000e+00
0.000000000000000000e+00
0.000000000000000000e+00
0.000000000000000000e+00
0.000000000000000000e+00
0.000000000000000000e+00
0.000000000000000000e+00
0.000000000000000000e+00
0.000000000000000000e+00
0.000000000000000000e+00
0.000000000000000000e+00
0.000000000000000000e+00
0.000000000000000000e+00
0.000000000000000000e+00
0.000000000000000000e+00
0.000000000000000000e+00
0.000000000000000000e+00
0.000000000000000000e+00
0.000000000000000000e+00
0.000000000000000000e+00
-1.091523344995368294e+00
-1.344181962679063425e+00
-5.426442789928583865e-01
-3.514895209371231288e-02
4.374969102973378932e-01
7.467859078066887424e-01
9.079646811566320919e-01
8.208410198863924645e-01
5.812509513932333505e-01
7.642106400607366901e-01
8.469781182674643860e-01
1.208541312538958801e+00
1.430706648778069967e+00
1.308733522999734555e+00
9.841978847680918907e-01
6.945117110445448994e-01
5.660043106709414795e-01
3.438389744318302577e-01
9.771463134340317713e-02
-5.600690112469063342e-01
-1.374675244123647389e+00
-2.028102703650445093e+00
-2.243733765294288141e+00
-1.832074465792405515e+00
-1.230921203027751876e+00
-1.266287964274639688e-01
1.199828946411934938e+00
1.829297399089416576e+00
2.201751051019690930e+00
2.245312881654811132e+00
1.633269161231377220e+00
3.460170659635862789e-01
-8.671799172245011622e-01
-1.411702800163499250e+00
-2.084733083476100646e+00
-2.174034836278096350e+00
-1.747128896053921965e+00
-8.889608325420610413e-01
6.313470566236212278e-01
1.692077632588788960e+00
2.060175101455551605e+00
1.975229531717068054e+00
1.395857184269974072e+00
5.529357614804054633e-01
-8.257961781211372587e-01
-1.544566383600614712e+00
-1.450908447735107076e+00
-1.518429285219542901e+00
-1.326757230425015477e+00
-1.004399683725128556e+00
-3.727531395158910077e-01
2.480029470345666009e-01
4.897711070594817362e-01
3.373046998365623050e-01
-1.772421983966438255e-02
3.019379385896743886e-02
1.042489059386711436e-01
2.719619538838825012e-01
1.390983704467670112e-01
1.804821095501308592e-01
5.289767546310896185e-01
3.438389744318302577e-01
2.153315740582267268e-01
1.804821095501308592e-01
1.478107365737909851e-01
8.900226521637920329e-02
-2.377114645470195520e-01
-3.531503157300870943e-01
-1.266287964274639688e-01
-2.994875856164473443e-04
-1.614782609355598364e-01
-4.184930616827668426e-01
-4.773015330401786382e-01
-4.511644346591067167e-01
-6.798640454934858912e-01
-4.990824483577385173e-01
-1.832591762531197710e-01
1.412764619785230047e-01
3.220580591142703786e-01
-7.653269119707616086e-02
-4.380958854685707560e-01
-7.757000728907494924e-01
-1.357250511869599441e+00
-2.032458886713957025e+00
-2.914585957075133571e+00
-3.171600757822340633e+00
-2.696776803899534336e+00
-2.346104067286819639e+00
-7.256039676603617261e-01
1.585351147532745530e+00
3.541277343049626047e+00
4.848132262103221457e+00
5.473244531717191386e+00
5.799958261480590238e+00
5.571258650646210953e+00
4.763186692364738128e+00
3.663250468827961459e+00
2.338970817520318768e+00
1.402391458865242191e+00
9.907321593633597878e-01
6.939944143057528991e-02
-1.087167161931856363e+00
-2.093445449603124509e+00
-2.768653824447481870e+00
-2.823106112741381679e+00
-2.611831234161050563e+00
-2.110870181857172678e+00
-1.694854699291778122e+00
-1.017468232915664572e+00
-3.422598580713071548e-01
-3.297086056195632636e-02
1.412764619785230047e-01
8.412878541407519881e-03
-9.613551498288008812e-02
-2.551361968010674719e-01
-3.226570342855031859e-01
-2.943418443726752987e-01
-8.345085442481612326e-01
-1.326757230425015477e+00
-1.490114095306714903e+00
-1.270126850599359702e+00
-6.798640454934858912e-01
-2.660266544598474669e-01
5.197470917652735611e-02
2.196877571217387137e-01
5.093739308452855941e-01
6.683746126634730889e-01
5.660043106709414795e-01
8.295533860134164383e-01
6.400594227506452016e-01
1.347421873832550243e-01
-2.398895560787755454e-01
-5.056167229530065255e-01
-5.165071806117864650e-01
-4.315616108733028033e-01
-3.444379496030631205e-01
-1.897934508483877514e-01
-1.244507048957079892e-01
-1.919715423801437171e-01
-2.769171121186274065e-01
-3.183008512219911990e-01
-3.008761189679433068e-01
-2.878075697774073460e-01
-3.988902378969629292e-01
-3.792874141111590158e-01
-1.941496339118997105e-01
-2.420676476105315389e-01
-8.742314885585612816e-02
1.712524466843148505e-02
1.630573772960829393e-01
1.957287502724228134e-01
1.957287502724228134e-01
3.394827913683182707e-01
3.198799675825143574e-01
3.438389744318302577e-01
1.608792857643269458e-01
2.148142773194347196e-02
4.761852611301536919e-02
5.850898377179532955e-02
6.939944143057528991e-02
3.890615998599140229e-02
1.059097007316351161e-02
3.890615998599140229e-02
-1.990231137142037254e-02
-1.810810847213637775e-01
-2.464238306740435258e-01
-1.941496339118997105e-01
-8.960124038761212162e-02
-6.782032507005218702e-02
-1.070259726416600554e-01
-6.564223353829619356e-02
-3.079276903020033290e-02
-9.831360651463608158e-02
-8.960124038761212162e-02
1.878603946139544489e-03
-3.514895209371231288e-02
-4.603940975249227324e-02
-8.088887426058814778e-02
-2.093962746341916648e-01
-4.598768007861306906e-01
-5.491785535881263947e-01
-2.856294782456513248e-01
-3.662188649206230551e-01
-3.792874141111590158e-01
8.246799062111123679e-02
4.004693542574860321e-01
7.642106400607366901e-01
1.143198566586279163e+00
1.149732841181547061e+00
1.208541312538958801e+00
1.282596424618662523e+00
1.110527193609939456e+00
7.446078162749327767e-01
2.828524115426624963e-01
-2.072181831024356713e-01
-3.444379496030631205e-01
-2.355333730152635585e-01
-2.486019222057995193e-01
-4.655670649128430469e-03
1.276906160491950333e-02
8.464608215286723025e-02
1.804821095501308592e-01
1.216736381927190774e-01
1.478107365737909851e-01
-2.477579117372439178e-03
-9.011853712640413919e-03
2.583761079545545541e-02
-8.306696579234414124e-02
-2.769171121186274065e-01
-2.224648238247276255e-01
-1.636563524673158299e-01
-1.527658948085358903e-01
-1.658344439990718233e-01
-1.505878032767798969e-01
-8.088887426058814778e-02
-1.157383387686840154e-01
6.234787009651528156e-03
-2.425849443493235599e-02
-2.994875856164473443e-04
8.028989908935524333e-02
1.783040180183748658e-01
1.891944756771548330e-01
2.583761079545545541e-02
-1.396973456179999296e-01
-4.620548923178866563e-01
-5.034386314212505598e-01
-3.967121463652069080e-01
-3.683969564523790208e-01
-1.571220778720478495e-01
8.412878541407519881e-03
2.262220317170066941e-01
4.222502695750459667e-01
5.921414090520132900e-01
6.052099582425493063e-01
4.026474457892420533e-01
3.089895099237344178e-01
1.238517297244750709e-01
-3.079276903020033290e-02
-6.564223353829619356e-02
-7.217650813356418782e-02
-6.564223353829619356e-02
-1.070259726416600554e-01
-1.331630710227319492e-01
-1.571220778720478495e-01
-9.613551498288008812e-02
-1.222726133639519958e-01
-1.789029931896077841e-01
-3.422598580713071548e-01
-5.426442789928583865e-01
-4.489863431273507510e-01
-3.509722241983310731e-01
-3.313694004125271597e-01
-1.789029931896077841e-01
2.801570232721144540e-02
1.543450111690589655e-01
1.674135603595948985e-01
1.695916518913508919e-01
2.218658486534947072e-01
2.131534825264707333e-01
1.870163841453988396e-01
1.717697434231068854e-01
8.464608215286723025e-02
-1.554612830790838909e-02
-3.950513515722429980e-02
-6.999841660180819436e-02
-2.208040290317636600e-02
-5.475177587951624014e-02
-1.331630710227319492e-01
-9.613551498288008812e-02
-2.573142883328234931e-01
-3.836435971746709472e-01
-3.008761189679433068e-01
-2.333552814835075651e-01
-2.181086407612156386e-01
-4.010683294287188949e-01
-5.774937435009542819e-01
-1.222726133639519958e-01
3.351266083048062838e-01
5.790728598614773848e-01
8.883618573708281785e-01
9.144989557519001000e-01
9.123208642201441343e-01
7.206488094256168209e-01
4.549216425513858408e-01
2.937428692014424358e-01
8.900226521637920329e-02
7.593371602584325641e-02
5.415280070828334957e-02
-1.222726133639519958e-01
-1.353411625544879426e-01
-1.266287964274639688e-01
-1.222726133639519958e-01
-1.396973456179999296e-01
-1.309849794909759557e-01
-1.701906270625838102e-01
-2.289990984199955781e-01
-1.113821557051720285e-01
-1.462316202132679099e-01
-2.006839085071676909e-01
-1.789029931896077841e-01
-2.289990984199955781e-01
-1.789029931896077841e-01
-1.375192540862439361e-01
-1.222726133639519958e-01
-1.375192540862439361e-01
-1.331630710227319492e-01
-1.462316202132679099e-01
-1.658344439990718233e-01
-9.613551498288008812e-02
-5.039559281600426016e-02
-6.782032507005218702e-02
-9.613551498288008812e-02
-1.026697895781480685e-01
-4.655670649128430469e-03
5.197470917652735611e-02
2.365951926369946196e-02
3.019379385896743886e-02
7.593371602584325641e-02
1.390983704467670112e-01
1.151393635974511109e-01
1.107831805339391240e-01
1.282079127879870717e-01
1.042489059386711436e-01
1.020708144069151641e-01
3.890615998599140229e-02
1.059097007316351161e-02
2.148142773194347196e-02
-3.079276903020033290e-02
-1.336803677615239737e-02
2.148142773194347196e-02
1.059097007316351161e-02
-3.732704362546830634e-02
-4.821750128424826670e-02
-4.168322668898029326e-02
-9.011853712640413919e-03
-3.079276903020033290e-02
-1.244507048957079892e-01
-1.789029931896077841e-01
-1.222726133639519958e-01
-1.353411625544879426e-01
-2.660266544598474669e-01
-4.293835193415467821e-01
-3.117665766267232463e-01
-1.614782609355598364e-01
-8.088887426058814778e-02
3.019379385896743886e-02
-1.554612830790838909e-02
1.238517297244750709e-01
3.220580591142703786e-01
4.113598119162660272e-01
4.636340086784098147e-01
4.636340086784098147e-01
2.262220317170066941e-01
-4.794796245719346039e-01
-5.862061096279782557e-01
-1.941496339118997105e-01
-1.963277254436557040e-01
-2.202867322929716321e-01
-4.729453499766666513e-01
-3.749312310476470289e-01
5.197470917652735611e-02
2.218658486534947072e-01
4.810587409324577624e-01
5.921414090520132900e-01
9.428141456647279872e-01
1.350117262103098348e+00
1.456843747159142000e+00
9.079646811566320919e-01
3.307704252412942969e-01
-2.224648238247276255e-01
-9.499473954312288582e-01
-1.211318379241947962e+00
-1.128550901035220377e+00
-9.760844938123007797e-01
-1.230921203027751876e+00
-1.307154406639211564e+00
-1.115482351844684361e+00
-6.145212995408061429e-01
2.131534825264707333e-01
1.084390095228867423e+00
1.522186493111821637e+00
1.774845110795516767e+00
2.277984254631150840e+00
2.408669746536510559e+00
1.944736250272484090e+00
1.350117262103098348e+00
7.446078162749327767e-01
-2.137524576977036517e-01
-6.210555741360740400e-01
-8.345085442481612326e-01
-1.463976996925643093e+00
-1.535854017473590627e+00
-1.949691408507229218e+00
-2.102157815730148815e+00
-1.224386928432483979e+00
-6.145212995408061429e-01
-2.682047459916034327e-01
-1.157383387686840154e-01
4.854149239959697493e-01
1.838009765216440439e+00
2.271449980035882721e+00
1.944736250272484090e+00
1.456843747159142000e+00
8.818275827755602814e-01
4.070036288527540402e-01
-2.464238306740435258e-01
-6.471926725171459616e-01
-9.586597615582528320e-01
-1.535854017473590627e+00
-1.978006598420056994e+00
-2.254624222953068191e+00
-1.978006598420056994e+00
-1.100235711122392157e+00
-4.054245124922308818e-01
2.915647776696864701e-01
7.424297247431768110e-01
1.119239559736963319e+00
1.474268479413189947e+00
1.456843747159142000e+00
1.173691848030862905e+00
4.374969102973378932e-01
-6.079870249455381348e-01
-1.224386928432483979e+00
-1.252702118345311755e+00
-1.145975633289268103e+00
-6.493707640489019273e-01
-2.425849443493235599e-02
2.480029470345666009e-01
5.415280070828334957e-02
-2.289990984199955781e-01
-2.573142883328234931e-01
-2.682047459916034327e-01
-3.313694004125271597e-01
-5.910795894302822706e-02
6.661965211317170121e-01
8.883618573708281785e-01
5.633089224003933609e-02
-1.252702118345311755e+00
-1.962759957697765012e+00
-2.770831915979238058e+00
-3.121504652591952755e+00
-2.555200854335395011e+00
-1.524963559814810798e+00
4.979661764477136265e-02
1.692077632588788960e+00
3.584839173684745806e+00
4.710912495602594063e+00
5.046338591493016779e+00
4.763186692364738128e+00
4.151142971941303550e+00
3.384454752763194740e+00
2.164723494979839291e+00
1.208541312538958801e+00
3.890615998599140229e-02
-7.865905305495294320e-01
-1.261414484472335840e+00
-2.058595985095028613e+00
-2.823106112741381679e+00
-2.979928703027813430e+00
-3.019134350599421257e+00
-2.511639023700275253e+00
-1.925732401657913373e+00
-1.004399683725128556e+00
4.244283611068019879e-01
1.456843747159142000e+00
2.166901586511595035e+00
1.997010447034627934e+00
1.709502364842836908e+00
6.792650703222530284e-01
-7.822343474860175006e-01
-1.779800269030261894e+00
-2.585694135779978975e+00
-2.487680016850958964e+00
-2.110870181857172678e+00
-1.250524026813555789e+00
-1.118994524439640564e-02
1.171513756499106940e+00
2.020969453883943778e+00
2.308477536075734804e+00
2.166901586511595035e+00
1.572282598342209514e+00
9.907321593633597878e-01
4.854149239959697493e-01
1.129612720656951175e-01
-3.596845903253550469e-01
-6.733297708982178831e-01
-9.325226631771809105e-01
-1.156866090948048154e+00
-1.089345253463612329e+00
-9.586597615582528320e-01
-6.842202285569978226e-01
-6.689735878347058406e-01
-4.489863431273507510e-01
-2.747390205868714408e-01
-1.985058169754116975e-01
-9.395742345112409466e-02
-4.664110753813986432e-01
-4.990824483577385173e-01
-1.985058169754116975e-01
-1.772421983966438255e-02
5.633089224003933609e-02
-2.861467749844433944e-02
9.771463134340317713e-02
1.979068418041788069e-01
2.153315740582267268e-01
2.850305030744185175e-01
2.066192079312027530e-01
1.478107365737909851e-01
-5.475177587951624014e-02
-1.200945218321960023e-01
-7.653269119707616086e-02
-1.745468101260957972e-01
-2.202867322929716321e-01
-3.792874141111590158e-01
-3.379036750077951679e-01
-3.008761189679433068e-01
-2.878075697774073460e-01
-1.941496339118997105e-01
-2.682047459916034327e-01
-2.289990984199955781e-01
-1.723687185943398037e-01
-1.026697895781480685e-01
-2.861467749844433944e-02
5.633089224003933609e-02
5.197470917652735611e-02
6.939944143057528991e-02
-3.079276903020033290e-02
-7.435459966532018128e-02
1.521669196373029720e-01
2.153315740582267268e-01
2.414686724392986206e-01
2.284001232487626876e-01
2.850305030744185175e-01
2.545372216298345536e-01
1.086050890021831306e-01
-2.769171121186274065e-01
-4.184930616827668426e-01
-2.643658596668834945e-02
2.153315740582267268e-01
4.222502695750459667e-01
4.897711070594817362e-01
5.660043106709414795e-01
6.052099582425493063e-01
5.398672122898695580e-01
4.723463748054337885e-01
3.133456929872464047e-01
2.937428692014424358e-01
3.155237845190023704e-01
1.804821095501308592e-01
1.282079127879870717e-01
7.157753296233126949e-02
5.415280070828334957e-02
1.712524466843148505e-02
-1.484097117450239034e-01
-2.464238306740435258e-01
-5.404661874611024208e-01
-6.079870249455381348e-01
-3.161227596902352333e-01
-2.464238306740435258e-01
5.197470917652735611e-02
3.133456929872464047e-01
5.115520223770416708e-01
5.507576699486494975e-01
3.656198897493901923e-01
3.569075236223662184e-01
3.438389744318302577e-01
3.394827913683182707e-01
2.850305030744185175e-01
2.327563063122746745e-01
9.553653981164718367e-02
6.504325836706330299e-02
1.608792857643269458e-01
3.672806845423541577e-02
-4.386131822073627978e-02
1.494715313667549506e-02
4.979661764477136265e-02
8.246799062111123679e-02
1.478107365737909851e-01
1.390983704467670112e-01
4.108425151774739575e-02
-8.306696579234414124e-02
-6.782032507005218702e-02
-4.821750128424826670e-02
-8.524505732410013470e-02
-1.854372677848757645e-01
-4.402739770003267772e-01
-4.947262652942265304e-01
-3.640407733888670339e-01
-2.551361968010674719e-01
-2.377114645470195520e-01
-1.418754371497559230e-01
-4.168322668898029326e-02
8.246799062111123679e-02
2.044411163994467595e-01
5.850898377179532955e-02
-1.336803677615239737e-02
-1.336803677615239737e-02
-1.222726133639519958e-01
-1.135602472369280219e-01
-1.135602472369280219e-01
-1.157383387686840154e-01
-7.435459966532018128e-02
-9.395742345112409466e-02
-1.309849794909759557e-01
-1.266287964274639688e-01
-1.135602472369280219e-01
-2.594923798645794588e-01
-3.596845903253550469e-01
-2.616704713963354800e-01
-2.202867322929716321e-01
-1.484097117450239034e-01
-1.070259726416600554e-01
-3.514895209371231288e-02
1.020708144069151641e-01
1.652354688278389050e-01
1.587011942325709524e-01
1.804821095501308592e-01
2.959209607331984571e-01
3.438389744318302577e-01
4.070036288527540402e-01
3.481951574953422446e-01
2.284001232487626876e-01
9.989272287515917059e-02
2.583761079545545541e-02
7.593371602584325641e-02
3.672806845423541577e-02
7.593371602584325641e-02
7.157753296233126949e-02
1.930333620018747851e-02
-1.772421983966438255e-02
-5.475177587951624014e-02
-1.440535286815119165e-01
-1.789029931896077841e-01
-1.636563524673158299e-01
-2.333552814835075651e-01
-1.919715423801437171e-01
-1.527658948085358903e-01
-6.564223353829619356e-02
-6.346414200654021398e-02
-3.514895209371231288e-02
9.118035674813519675e-02
1.042489059386711436e-01
5.633089224003933609e-02
6.286516683530730953e-02
-1.772421983966438255e-02
-1.963277254436557040e-01
-1.396973456179999296e-01
-1.309849794909759557e-01
-9.395742345112409466e-02
0.000000000000000000e+00
0.000000000000000000e+00
0.000000000000000000e+00
0.000000000000000000e+00
0.000000000000000000e+00
0.000000000000000000e+00
0.000000000000000000e+00
0.000000000000000000e+00
0.000000000000000000e+00
0.000000000000000000e+00
0.000000000000000000e+00
0.000000000000000000e+00
0.000000000000000000e+00
0.000000000000000000e+00
0.000000000000000000e+00
0.000000000000000000e+00
0.000000000000000000e+00
0.000000000000000000e+00
0.000000000000000000e+00
0.000000000000000000e+00
0.000000000000000000e+00
0.000000000000000000e+00
0.000000000000000000e+00
0.000000000000000000e+00
0.000000000000000000e+00
0.000000000000000000e+00
0.000000000000000000e+00
0.000000000000000000e+00
0.000000000000000000e+00
0.000000000000000000e+00
0.000000000000000000e+00
0.000000000000000000e+00
0.000000000000000000e+00
0.000000000000000000e+00
0.000000000000000000e+00
0.000000000000000000e+00
0.000000000000000000e+00
0.000000000000000000e+00
0.000000000000000000e+00
0.000000000000000000e+00
0.000000000000000000e+00
0.000000000000000000e+00
0.000000000000000000e+00
0.000000000000000000e+00
0.000000000000000000e+00
0.000000000000000000e+00
0.000000000000000000e+00
0.000000000000000000e+00
0.000000000000000000e+00
0.000000000000000000e+00
0.000000000000000000e+00
0.000000000000000000e+00
-1.633868136402610416e+00
-1.000043500661616624e+00
-4.489863431273507510e-01
-8.306696579234414124e-02
4.984834731865057100e-01
5.398672122898695580e-01
6.596622465364491150e-01
8.230191114181484302e-01
1.230322227856518902e+00
1.456843747159142000e+00
1.430706648778069967e+00
1.456843747159142000e+00
1.252103143174078781e+00
9.428141456647279872e-01
4.854149239959697493e-01
1.848382926136428461e-01
-3.291913088807711940e-01
-1.326757230425015477e+00
-2.032458886713957025e+00
-1.747128896053921965e+00
-1.411702800163499250e+00
-1.348538145742575356e+00
-1.143797541757512137e+00
-8.345085442481612326e-01
-3.052323020314552937e-01
-1.266287964274639688e-01
4.287845441703139748e-01
1.267349783896370763e+00
1.994832355502871968e+00
2.493615316274993887e+00
2.578560886013477660e+00
2.493615316274993887e+00
1.881571595851560419e+00
1.119239559736963319e+00
3.895788965987060926e-01
-8.306696579234414124e-02
-1.135602472369280219e-01
8.246799062111123679e-02
-3.074103935632112594e-01
-1.050139605892004502e+00
-1.450908447735107076e+00
-1.518429285219542901e+00
-1.050139605892004502e+00
-6.406583979218779534e-01
-1.876153593166317579e-01
1.804821095501308592e-01
3.830446220034381399e-01
4.418530933608498801e-01
3.220580591142703786e-01
4.004693542574860321e-01
8.464608215286723025e-02
-3.967121463652069080e-01
-8.257961781211372587e-01
-1.206962196178436031e+00
-1.583772031172222539e+00
-1.738416529926897880e+00
-1.673073783974218243e+00
-1.747128896053921965e+00
-1.108948077249416242e+00
-6.341241233266100563e-01
-6.471926725171459616e-01
-4.272054278097908164e-01
-6.782032507005218702e-02
4.723463748054337885e-01
7.642106400607366901e-01
8.426219352039523436e-01
1.173691848030862905e+00
2.164723494979839291e+00
2.704890194855325003e+00
2.493615316274993887e+00
1.824941216025904644e+00
5.812509513932333505e-01
2.131534825264707333e-01
3.672806845423541577e-02
-4.446301600638387641e-01
-6.929325946840217965e-01
-7.560972491049455790e-01
-9.412350293042048843e-01
-1.270126850599359702e+00
-1.078454795804832278e+00
-3.901778717699389554e-01
2.066192079312027530e-01
7.424297247431768110e-01
1.456843747159142000e+00
1.533076950770601687e+00
1.173691848030862905e+00
4.636340086784098147e-01
-2.420676476105315389e-01
-3.945340548334509423e-01
-6.145212995408061429e-01
-8.257961781211372587e-01
-1.535854017473590627e+00
-2.254624222953068191e+00
-3.195559764671656477e+00
-3.947001343127473749e+00
-4.265002706763848295e+00
-4.511127049852275306e+00
-3.698698908507290550e+00
-1.836430648855917669e+00
6.792650703222530284e-01
3.203673155627447144e+00
5.046338591493016779e+00
6.420714348031047791e+00
6.801880366088346008e+00
6.501303734706019632e+00
5.571258650646210953e+00
4.098868775179160373e+00
2.591629435204013454e+00
8.469781182674643860e-01
-9.129198393913769971e-01
-2.823106112741381679e+00
-4.018878363675421284e+00
-3.920864244746401717e+00
-3.548410592816126918e+00
-2.927654506265669365e+00
-1.877814387959281461e+00
-5.600690112469063342e-01
3.024552353284664097e-01
8.055943791641004825e-01
1.162801390372083077e+00
1.084390095228867423e+00
9.123208642201441343e-01
7.729230061877606639e-01
5.529357614804054633e-01
2.153315740582267268e-01
-3.950513515722429980e-02
-3.531503157300870943e-01
-6.755078624299738488e-01
-7.560972491049455790e-01
-7.321382422556296232e-01
-4.881919906989585778e-01
-4.860138991672026121e-01
-5.774937435009542819e-01
-5.774937435009542819e-01
-6.624393132394379435e-01
-4.424520685320827429e-01
-2.986980274361872856e-01
-1.418754371497559230e-01
-2.268210068882395847e-01
-5.470004620563703179e-01
-4.293835193415467821e-01
-5.491785535881263947e-01
-6.493707640489019273e-01
-4.380958854685707560e-01
-4.097806955557428688e-01
-7.430286999144095628e-01
-8.432209103751852064e-01
-5.208633636752985074e-01
-4.184930616827668426e-01
-1.026697895781480685e-01
4.353188187655819275e-01
8.709371251167802308e-01
1.286952607682174676e+00
1.624556795104353357e+00
1.679009083398253166e+00
1.286952607682174676e+00
8.055943791641004825e-01
1.979068418041788069e-01
-9.613551498288008812e-02
-1.484097117450239034e-01
-4.489863431273507510e-01
-7.560972491049455790e-01
-7.953028966765534058e-01
-5.774937435009542819e-01
-5.470004620563703179e-01
-5.600690112469063342e-01
-3.400817665395511336e-01
-2.986980274361872856e-01
-2.442457391422875324e-01
-2.202867322929716321e-01
-4.511644346591067167e-01
-6.341241233266100563e-01
-6.058089334137821691e-01
-3.967121463652069080e-01
-7.217650813356418782e-02
2.959209607331984571e-01
4.636340086784098147e-01
6.727307957269850203e-01
7.228269009573727866e-01
6.988678941080569418e-01
7.162926263621048895e-01
6.400594227506452016e-01
4.854149239959697493e-01
2.044411163994467595e-01
1.059097007316351161e-02
-2.643658596668834945e-02
-6.782032507005218702e-02
-7.871078272883215432e-02
1.930333620018747851e-02
-3.297086056195632636e-02
-3.732704362546830634e-02
1.059097007316351161e-02
8.464608215286723025e-02
1.151393635974511109e-01
1.478107365737909851e-01
1.630573772960829393e-01
6.504325836706330299e-02
1.059097007316351161e-02
-6.128605047478421358e-02
-2.643658596668834945e-02
-6.999841660180819436e-02
-1.244507048957079892e-01
-1.832591762531197710e-01
-1.636563524673158299e-01
-2.643658596668834945e-02
6.234787009651528156e-03
1.059097007316351161e-02
-6.346414200654021398e-02
-1.244507048957079892e-01
-3.792874141111590158e-01
-8.149057204623573192e-01
-7.844124390177734663e-01
-2.442457391422875324e-01
2.044411163994467595e-01
6.988678941080569418e-01
1.171513756499106940e+00
1.308733522999734555e+00
1.289130699213930642e+00
1.049540630720771528e+00
8.295533860134164383e-01
6.313470566236212278e-01
4.331407272338259618e-01
2.523591300980785879e-01
1.347421873832550243e-01
-5.910795894302822706e-02
-1.745468101260957972e-01
-1.876153593166317579e-01
-1.571220778720478495e-01
-1.745468101260957972e-01
-2.159305492294596451e-01
-2.573142883328234931e-01
-3.683969564523790208e-01
-3.749312310476470289e-01
-3.858216887064269685e-01
-3.183008512219911990e-01
-3.444379496030631205e-01
-3.117665766267232463e-01
-1.484097117450239034e-01
-1.767249016578517906e-01
-2.747390205868714408e-01
-3.967121463652069080e-01
-2.769171121186274065e-01
-8.088887426058814778e-02
-1.113821557051720285e-01
-3.079276903020033290e-02
1.042489059386711436e-01
2.066192079312027530e-01
3.024552353284664097e-01
2.567153131615905748e-01
7.375562449408726295e-02
-4.315616108733028033e-01
-6.820421370252418569e-01
-4.489863431273507510e-01
-2.769171121186274065e-01
9.553653981164718367e-02
2.567153131615905748e-01
2.763181369473944882e-01
3.765103474081701318e-01
3.373046998365623050e-01
3.111676014554903835e-01
1.695916518913508919e-01
1.499888281055469785e-01
1.608792857643269458e-01
4.544043458125938267e-02
-3.079276903020033290e-02
-7.217650813356418782e-02
-1.789029931896077841e-01
-1.701906270625838102e-01
-1.353411625544879426e-01
-1.440535286815119165e-01
-1.331630710227319492e-01
-1.135602472369280219e-01
-6.128605047478421358e-02
-8.742314885585612816e-02
-1.092040641734160489e-01
-1.832591762531197710e-01
-1.527658948085358903e-01
4.056695477895536431e-03
4.108425151774739575e-02
-3.514895209371231288e-02
3.672806845423541577e-02
7.375562449408726295e-02
-2.208040290317636600e-02
-8.742314885585612816e-02
-6.564223353829619356e-02
1.712524466843148505e-02
7.811180755759924987e-02
1.020708144069151641e-01
7.375562449408726295e-02
1.107831805339391240e-01
-1.266287964274639688e-01
-4.947262652942265304e-01
-5.404661874611024208e-01
-3.662188649206230551e-01
-2.268210068882395847e-01
5.633089224003933609e-02
2.436467639710546140e-01
4.178940865115339798e-01
5.747166767979654534e-01
5.834290429249893162e-01
6.400594227506452016e-01
4.636340086784098147e-01
3.982912627257300664e-01
2.545372216298345536e-01
7.375562449408726295e-02
-6.346414200654021398e-02
-2.899856613091633117e-01
-3.945340548334509423e-01
-3.074103935632112594e-01
-2.072181831024356713e-01
-1.527658948085358903e-01
-5.039559281600426016e-02
2.801570232721144540e-02
2.801570232721144540e-02
7.811180755759924987e-02
1.260298212562310782e-01
-1.772421983966438255e-02
-6.128605047478421358e-02
-3.514895209371231288e-02
-5.692986741127223360e-02
-1.070259726416600554e-01
-1.244507048957079892e-01
-3.514895209371231288e-02
2.583761079545545541e-02
1.878603946139544489e-03
4.056695477895536431e-03
2.365951926369946196e-02
3.237188539072342885e-02
4.544043458125938267e-02
-2.994875856164473443e-04
3.237188539072342885e-02
8.412878541407519881e-03
8.412878541407519881e-03
4.544043458125938267e-02
2.583761079545545541e-02
7.811180755759924987e-02
1.712524466843148505e-02
-6.128605047478421358e-02
-4.386131822073627978e-02
-1.772421983966438255e-02
3.019379385896743886e-02
-9.011853712640413919e-03
1.494715313667549506e-02
-2.643658596668834945e-02
-4.821750128424826670e-02
-2.643658596668834945e-02
-1.266287964274639688e-01
-1.092040641734160489e-01
-1.113821557051720285e-01
-7.871078272883215432e-02
-8.088887426058814778e-02
-1.772421983966438255e-02
5.415280070828334957e-02
-5.910795894302822706e-02
-3.967121463652069080e-01
-1.000043500661616624e+00
-1.000043500661616624e+00
-6.471926725171459616e-01
-2.529581052693115062e-01
1.935506587406668200e-01
4.549216425513858408e-01
7.446078162749327767e-01
8.339095690769283697e-01
9.166770472836560657e-01
8.099505622276125250e-01
3.699760728129021792e-01
-2.425849443493235599e-02
-1.440535286815119165e-01
-2.725609290551154196e-01
-3.074103935632112594e-01
-3.400817665395511336e-01
-8.606456426292331541e-01
-1.252702118345311755e+00
-1.078454795804832278e+00
-5.252195467388104388e-01
-2.861467749844433944e-02
4.287845441703139748e-01
3.089895099237344178e-01
-2.137524576977036517e-01
1.042489059386711436e-01
4.854149239959697493e-01
6.814431618540089941e-01
1.197650854880178972e+00
1.692077632588788960e+00
2.352039366710854562e+00
2.635191265839133656e+00
2.042750369201503879e+00
1.398035275801730259e+00
8.230191114181484302e-01
3.351266083048062838e-01
-4.386131822073627978e-02
-4.424520685320827429e-01
-8.867827410103050756e-01
-1.368140969528379269e+00
-1.642580502529634279e+00
-1.660005234783682226e+00
-1.411702800163499250e+00
-1.047961514360248536e+00
-9.042074732643530233e-01
-9.717283107487887372e-01
-8.933170156055730837e-01
-6.733297708982178831e-01
-5.165071806117864650e-01
-1.593001694038038429e-01
2.458248555028106075e-01
6.574841550046930383e-01
1.097458644419403440e+00
1.117061468205207131e+00
6.749088872587409860e-01
5.633089224003933609e-02
-1.070259726416600554e-01
-3.139446681584792120e-01
-2.464238306740435258e-01
-2.268210068882395847e-01
-7.800562559542614238e-01
-1.076276704273076312e+00
-1.224386928432483979e+00
-8.867827410103050756e-01
-4.468082515955947298e-01
5.289767546310896185e-01
1.707324273311080942e+00
1.598419696723281325e+00
9.711293355775558744e-01
1.230322227856518902e+00
1.350117262103098348e+00
8.600466674580002913e-01
4.854149239959697493e-01
1.456326450420349916e-01
3.220580591142703786e-01
2.044411163994467595e-01
-9.177933191936811508e-02
-5.208633636752985074e-01
-6.406583979218779534e-01
-3.596845903253550469e-01
-1.484097117450239034e-01
-2.425849443493235599e-02
-3.836435971746709472e-01
-7.865905305495294320e-01
-1.402990434036475165e+00
-1.531497834410078696e+00
-1.270126850599359702e+00
-1.252702118345311755e+00
-9.673721276852768058e-01
-4.250273362780347952e-01
5.398672122898695580e-01
1.491693211667237895e+00
1.687721449525277029e+00
1.491693211667237895e+00
9.950883424268718302e-01
4.326234304950338921e-02
-5.470004620563703179e-01
-1.270126850599359702e+00
-2.679352071645486610e+00
-3.973138441508545338e+00
-4.628743992567098786e+00
-4.265002706763848295e+00
-3.206450222330436528e+00
-1.291907765916919582e+00
8.883618573708281785e-01
2.733205384768153223e+00
4.656460207308694699e+00
5.046338591493016779e+00
4.974461570945068800e+00
4.569336546038454294e+00
3.807004509923856972e+00
2.874781334332292548e+00
1.733461371692152975e+00
9.079646811566320919e-01
1.543450111690589655e-01
-7.822343474860175006e-01
-1.694854699291778122e+00
-2.019390337523420786e+00
-2.217596666913216108e+00
-2.099979724198392628e+00
-2.019390337523420786e+00
-1.962759957697765012e+00
-1.270126850599359702e+00
-7.016449608110457703e-01
2.196877571217387137e-01
1.066965362974819476e+00
1.672474808802985047e+00
2.164723494979839291e+00
2.042750369201503879e+00
1.615844428977329272e+00
1.117061468205207131e+00
7.446078162749327767e-01
4.810587409324577624e-01
1.129612720656951175e-01
-1.266287964274639688e-01
-3.727531395158910077e-01
-7.016449608110457703e-01
-1.037071056701468486e+00
-1.322401047361503545e+00
-1.535854017473590627e+00
-1.673073783974218243e+00
-1.450908447735107076e+00
-1.145975633289268103e+00
-1.017468232915664572e+00
-8.214399950576253273e-01
-6.341241233266100563e-01
-3.727531395158910077e-01
-8.742314885585612816e-02
1.494715313667549506e-02
8.464608215286723025e-02
1.608792857643269458e-01
1.608792857643269458e-01
8.900226521637920329e-02
-1.336803677615239737e-02
-1.353411625544879426e-01
-1.810810847213637775e-01
-1.200945218321960023e-01
-5.475177587951624014e-02
-1.118994524439640564e-02
6.286516683530730953e-02
-3.732704362546830634e-02
8.464608215286723025e-02
2.632495877568585274e-01
2.349343978440306679e-01
2.676057708203705143e-01
1.238517297244750709e-01
-3.950513515722429980e-02
-5.692986741127223360e-02
-4.168322668898029326e-02
-6.999841660180819436e-02
-6.999841660180819436e-02
3.019379385896743886e-02
3.454997692247942231e-02
1.107831805339391240e-01
1.129612720656951175e-01
1.608792857643269458e-01
1.674135603595948985e-01
-6.833762180884422194e-03
-1.288068879592199623e-01
-5.905622926914901871e-01
-9.673721276852768058e-01
-5.927403842232461528e-01
-2.986980274361872856e-01
-6.564223353829619356e-02
3.220580591142703786e-01
5.267986630993335417e-01
6.182785074330852115e-01
5.159082054405536022e-01
5.137301139087976365e-01
4.026474457892420533e-01
3.569075236223662184e-01
2.153315740582267268e-01
8.412878541407519881e-03
-7.653269119707616086e-02
-8.088887426058814778e-02
2.148142773194347196e-02
3.890615998599140229e-02
2.801570232721144540e-02
-1.963277254436557040e-01
-6.384803063901219877e-01
-5.992746588185141610e-01
-2.551361968010674719e-01
-1.026697895781480685e-01
3.198799675825143574e-01
5.507576699486494975e-01
6.052099582425493063e-01
7.358954501479088028e-01
5.921414090520132900e-01
5.028396562500176969e-01
3.634417982176342266e-01
2.436467639710546140e-01
9.989272287515917059e-02
-1.222726133639519958e-01
-1.200945218321960023e-01
-5.257368434776024668e-02
-8.960124038761212162e-02
-1.179164303004400088e-01
-1.113821557051720285e-01
-1.593001694038038429e-01
-1.527658948085358903e-01
-1.593001694038038429e-01
-1.200945218321960023e-01
-1.179164303004400088e-01
-1.004916980463920750e-01
6.286516683530730953e-02
4.056695477895536431e-03
-1.440535286815119165e-01
-1.331630710227319492e-01
2.148142773194347196e-02
8.900226521637920329e-02
2.153315740582267268e-01
3.046333268602224309e-01
4.026474457892420533e-01
6.052099582425493063e-01
5.790728598614773848e-01
4.745244663371897542e-01
2.719619538838825012e-01
1.848382926136428461e-01
4.544043458125938267e-02
-1.026697895781480685e-01
-2.072181831024356713e-01
-3.444379496030631205e-01
-3.705750479841350420e-01
-3.749312310476470289e-01
-2.856294782456513248e-01
-1.919715423801437171e-01
-1.527658948085358903e-01
-1.440535286815119165e-01
-1.854372677848757645e-01
-1.810810847213637775e-01
-1.135602472369280219e-01
-8.088887426058814778e-02
-7.217650813356418782e-02
4.108425151774739575e-02
1.478107365737909851e-01
1.935506587406668200e-01
1.390983704467670112e-01
1.390983704467670112e-01
1.173174551292071044e-01
2.365951926369946196e-02
-3.514895209371231288e-02
-2.643658596668834945e-02
-8.524505732410013470e-02
-8.306696579234414124e-02
-7.435459966532018128e-02
-3.514895209371231288e-02
3.019379385896743886e-02
5.197470917652735611e-02
8.246799062111123679e-02
-1.554612830790838909e-02
-3.079276903020033290e-02
-3.030542104996992725e-01
-3.662188649206230551e-01
-3.357255834760391466e-01
-3.988902378969629292e-01
-9.613551498288008812e-02
5.633089224003933609e-02
2.676057708203705143e-01
3.656198897493901923e-01
4.026474457892420533e-01
3.895788965987060926e-01
3.220580591142703786e-01
3.111676014554903835e-01
1.870163841453988396e-01
1.935506587406668200e-01
2.218658486534947072e-01
2.153315740582267268e-01
3.454997692247942231e-02
-4.386131822073627978e-02
1.059097007316351161e-02
-8.960124038761212162e-02
-2.159305492294596451e-01
-2.268210068882395847e-01
-2.420676476105315389e-01
-2.551361968010674719e-01
-2.115743661659476582e-01
-3.183008512219911990e-01
-3.444379496030631205e-01
-2.769171121186274065e-01
-2.006839085071676909e-01
-1.004916980463920750e-01
1.276906160491950333e-02
2.066192079312027530e-01
2.588934046933465405e-01
2.196877571217387137e-01
1.608792857643269458e-01
7.375562449408726295e-02
2.148142773194347196e-02
4.544043458125938267e-02
4.326234304950338921e-02
-8.742314885585612816e-02
-6.782032507005218702e-02
0.000000000000000000e+00
0.000000000000000000e+00
0.000000000000000000e+00
0.000000000000000000e+00
0.000000000000000000e+00
0.000000000000000000e+00
0.000000000000000000e+00
0.000000000000000000e+00
0.000000000000000000e+00
0.000000000000000000e+00
0.000000000000000000e+00
0.000000000000000000e+00
0.000000000000000000e+00
0.000000000000000000e+00
0.000000000000000000e+00
0.000000000000000000e+00
0.000000000000000000e+00
0.000000000000000000e+00
0.000000000000000000e+00
0.000000000000000000e+00
0.000000000000000000e+00
0.000000000000000000e+00
0.000000000000000000e+00
0.000000000000000000e+00
0.000000000000000000e+00
0.000000000000000000e+00
0.000000000000000000e+00
0.000000000000000000e+00
0.000000000000000000e+00
0.000000000000000000e+00
0.000000000000000000e+00
0.000000000000000000e+00
0.000000000000000000e+00
0.000000000000000000e+00
0.000000000000000000e+00
0.000000000000000000e+00
0.000000000000000000e+00
0.000000000000000000e+00
0.000000000000000000e+00
0.000000000000000000e+00
0.000000000000000000e+00
0.000000000000000000e+00
0.000000000000000000e+00
0.000000000000000000e+00
-1.348538145742575356e+00
-7.125354184698257098e-01
-4.010683294287188949e-01
1.608792857643269458e-01
6.313470566236212278e-01
5.964975921155253324e-01
7.032240771715688732e-01
7.642106400607366901e-01
9.645950609822879773e-01
9.841978847680918907e-01
9.907321593633597878e-01
1.117061468205207131e+00
1.204185129475446869e+00
9.253894134106800395e-01
1.913725672089108265e-01
-5.687813773739303080e-01
-9.499473954312288582e-01
-1.117660443376440327e+00
-1.156866090948048154e+00
-8.671799172245011622e-01
-4.010683294287188949e-01
3.982912627257300664e-01
9.079646811566320919e-01
1.032115898466723580e+00
8.208410198863924645e-01
4.113598119162660272e-01
3.220580591142703786e-01
2.196877571217387137e-01
2.392905809075426271e-01
3.177018760507583917e-01
2.632495877568585274e-01
1.347421873832550243e-01
-2.159305492294596451e-01
-3.705750479841350420e-01
-2.573142883328234931e-01
-3.640407733888670339e-01
-4.315616108733028033e-01
-4.010683294287188949e-01
-4.184930616827668426e-01
-4.881919906989585778e-01
-8.606456426292331541e-01
-1.461798905393887127e+00
-1.925732401657913373e+00
-1.836430648855917669e+00
-1.498826461433738988e+00
-9.238102970501569366e-01
-1.593001694038038429e-01
1.021225440807943752e+00
2.552423787632405627e+00
3.131796135079499610e+00
2.955370721007264390e+00
2.352039366710854562e+00
1.084390095228867423e+00
3.220580591142703786e-01
-1.701906270625838102e-01
-6.188774826043180743e-01
-5.339319128658344127e-01
-5.927403842232461528e-01
-6.471926725171459616e-01
-7.430286999144095628e-01
-9.129198393913769971e-01
-1.211318379241947962e+00
-9.956873175981046931e-01
-7.953028966765534058e-01
-1.261414484472335840e+00
-1.344181962679063425e+00
-6.232336656678301168e-01
6.727307957269850203e-01
1.615844428977329272e+00
1.596241605191525359e+00
1.350117262103098348e+00
1.633269161231377220e+00
1.722570914033372924e+00
1.350117262103098348e+00
8.600466674580002913e-01
-1.527658948085358903e-01
-1.836430648855917669e+00
-3.265258693687848268e+00
-3.526629677498567261e+00
-3.016956259067665069e+00
-1.962759957697765012e+00
-8.127276289306013535e-01
1.979068418041788069e-01
9.537046033235079268e-01
1.400213367333486225e+00
2.134230213535255327e+00
2.493615316274993887e+00
2.299765169948710941e+00
2.042750369201503879e+00
1.550501683024649635e+00
6.052099582425493063e-01
-2.398895560787755454e-01
-9.455912123677168157e-01
-1.694854699291778122e+00
-1.808115458943089671e+00
-1.463976996925643093e+00
-1.145975633289268103e+00
-6.058089334137821691e-01
-2.551361968010674719e-01
-4.293835193415467821e-01
-4.598768007861306906e-01
-7.691657982954814843e-01
-1.108948077249416242e+00
-8.088887426058814778e-02
1.110527193609939456e+00
1.994832355502871968e+00
2.493615316274993887e+00
2.630835082775621281e+00
2.635191265839133656e+00
2.382532648155438526e+00
1.733461371692152975e+00
6.727307957269850203e-01
-2.006839085071676909e-01
-7.953028966765534058e-01
-1.206962196178436031e+00
-1.411702800163499250e+00
-1.553278749727638575e+00
-1.784156452093773826e+00
-1.620799587212074400e+00
-1.091523344995368294e+00
-1.128550901035220377e+00
-1.535854017473590627e+00
-2.102157815730148815e+00
-1.895239120213329409e+00
-1.463976996925643093e+00
-9.608378530900087977e-01
8.028989908935524333e-02
1.546145499961137704e+00
3.136152318143011541e+00
3.443263224120606480e+00
3.059919114531552076e+00
2.432628753385826403e+00
1.687721449525277029e+00
9.079646811566320919e-01
4.592778256148978278e-01
1.695916518913508919e-01
-3.487941326665751074e-01
-9.129198393913769971e-01
-1.108948077249416242e+00
-6.210555741360740400e-01
-5.382880959293463441e-01
-7.822343474860175006e-01
-8.214399950576253273e-01
-8.606456426292331541e-01
-8.257961781211372587e-01
-1.000043500661616624e+00
-1.180825097797363998e+00
-1.311510589702723495e+00
-1.592484397299246623e+00
-1.677429967037730174e+00
-1.326757230425015477e+00
-9.739064022805447030e-01
-5.339319128658344127e-01
2.588934046933465405e-01
9.123208642201441343e-01
1.587529239064501496e+00
2.103736932090671363e+00
2.271449980035882721e+00
1.829297399089416576e+00
1.101814827482915371e+00
1.761259264866188723e-01
-7.974809882083093715e-01
-7.495629745096775709e-01
-5.404661874611024208e-01
-6.471926725171459616e-01
-4.010683294287188949e-01
-1.745468101260957972e-01
-1.113821557051720285e-01
-2.093962746341916648e-01
-1.440535286815119165e-01
-1.309849794909759557e-01
-2.425849443493235599e-02
2.044411163994467595e-01
1.848382926136428461e-01
1.674135603595948985e-01
6.504325836706330299e-02
3.672806845423541577e-02
-1.336803677615239737e-02
-4.386131822073627978e-02
-1.462316202132679099e-01
-2.093962746341916648e-01
-2.769171121186274065e-01
-4.315616108733028033e-01
-5.034386314212505598e-01
-5.731375604374422394e-01
-6.079870249455381348e-01
-8.606456426292331541e-01
-6.776859539617298145e-01
-3.095884850949672806e-01
-1.745468101260957972e-01
1.804821095501308592e-01
3.373046998365623050e-01
4.810587409324577624e-01
5.093739308452855941e-01
4.854149239959697493e-01
5.747166767979654534e-01
5.660043106709414795e-01
5.507576699486494975e-01
3.743322558764141661e-01
2.066192079312027530e-01
1.478107365737909851e-01
1.979068418041788069e-01
3.373046998365623050e-01
4.287845441703139748e-01
4.810587409324577624e-01
3.656198897493901923e-01
2.806743200109065306e-01
1.325640958514990309e-01
1.059097007316351161e-02
-2.425849443493235599e-02
-8.306696579234414124e-02
-1.266287964274639688e-01
-1.745468101260957972e-01
-8.742314885585612816e-02
-1.092040641734160489e-01
-1.701906270625838102e-01
-1.832591762531197710e-01
-1.636563524673158299e-01
-8.524505732410013470e-02
-3.079276903020033290e-02
-1.772421983966438255e-02
-1.200945218321960023e-01
-4.603940975249227324e-02
5.633089224003933609e-02
5.415280070828334957e-02
5.850898377179532955e-02
9.335844827989119021e-02
2.153315740582267268e-01
1.957287502724228134e-01
1.325640958514990309e-01
8.028989908935524333e-02
8.246799062111123679e-02
3.672806845423541577e-02
-7.653269119707616086e-02
-1.026697895781480685e-01
-7.217650813356418782e-02
-1.113821557051720285e-01
-1.309849794909759557e-01
5.197470917652735611e-02
1.390983704467670112e-01
1.325640958514990309e-01
2.218658486534947072e-01
2.131534825264707333e-01
2.044411163994467595e-01
1.042489059386711436e-01
-8.306696579234414124e-02
-1.772421983966438255e-02
-9.011853712640413919e-03
1.878603946139544489e-03
2.148142773194347196e-02
-3.950513515722429980e-02
-1.118994524439640564e-02
-1.897934508483877514e-01
-4.184930616827668426e-01
-3.509722241983310731e-01
-1.440535286815119165e-01
-1.157383387686840154e-01
-4.655670649128430469e-03
1.325640958514990309e-01
1.935506587406668200e-01
2.676057708203705143e-01
2.436467639710546140e-01
1.695916518913508919e-01
1.804821095501308592e-01
2.153315740582267268e-01
1.870163841453988396e-01
1.303860043197430374e-01
9.118035674813519675e-02
7.811180755759924987e-02
-9.177933191936811508e-02
-1.745468101260957972e-01
-9.177933191936811508e-02
-1.527658948085358903e-01
-2.682047459916034327e-01
-2.986980274361872856e-01
-2.333552814835075651e-01
-1.723687185943398037e-01
-4.386131822073627978e-02
-3.079276903020033290e-02
4.979661764477136265e-02
1.042489059386711436e-01
6.504325836706330299e-02
2.218658486534947072e-01
2.218658486534947072e-01
1.303860043197430374e-01
3.454997692247942231e-02
1.878603946139544489e-03
1.064269974704271371e-01
0.000000000000000000e+00
0.000000000000000000e+00
0.000000000000000000e+00
0.000000000000000000e+00
0.000000000000000000e+00
0.000000000000000000e+00
0.000000000000000000e+00
0.000000000000000000e+00
0.000000000000000000e+00
0.000000000000000000e+00
0.000000000000000000e+00
0.000000000000000000e+00
0.000000000000000000e+00
0.000000000000000000e+00
0.000000000000000000e+00
0.000000000000000000e+00
0.000000000000000000e+00
0.000000000000000000e+00
0.000000000000000000e+00
0.000000000000000000e+00
0.000000000000000000e+00
0.000000000000000000e+00
0.000000000000000000e+00
0.000000000000000000e+00
0.000000000000000000e+00
0.000000000000000000e+00
0.000000000000000000e+00
0.000000000000000000e+00
0.000000000000000000e+00
0.000000000000000000e+00
0.000000000000000000e+00
0.000000000000000000e+00
0.000000000000000000e+00
0.000000000000000000e+00
0.000000000000000000e+00
0.000000000000000000e+00
0.000000000000000000e+00
0.000000000000000000e+00
0.000000000000000000e+00
0.000000000000000000e+00
0.000000000000000000e+00
0.000000000000000000e+00
0.000000000000000000e+00
0.000000000000000000e+00
0.000000000000000000e+00
0.000000000000000000e+00
0.000000000000000000e+00
0.000000000000000000e+00
0.000000000000000000e+00
0.000000000000000000e+00
0.000000000000000000e+00
0.000000000000000000e+00
0.000000000000000000e+00
0.000000000000000000e+00
0.000000000000000000e+00
0.000000000000000000e+00
0.000000000000000000e+00
0.000000000000000000e+00
0.000000000000000000e+00
0.000000000000000000e+00
0.000000000000000000e+00
0.000000000000000000e+00
0.000000000000000000e+00
0.000000000000000000e+00
0.000000000000000000e+00
0.000000000000000000e+00
0.000000000000000000e+00
0.000000000000000000e+00
0.000000000000000000e+00
0.000000000000000000e+00
0.000000000000000000e+00
0.000000000000000000e+00
0.000000000000000000e+00
0.000000000000000000e+00
0.000000000000000000e+00
0.000000000000000000e+00
0.000000000000000000e+00
-1.209140287710191997e+00
-1.145975633289268103e+00
-3.596845903253550469e-01
1.674135603595948985e-01
3.895788965987060926e-01
4.854149239959697493e-01
4.200721780432900010e-01
3.656198897493901923e-01
2.632495877568585274e-01
5.464014868851374551e-01
6.052099582425493063e-01
6.313470566236212278e-01
4.418530933608498801e-01
2.850305030744185175e-01
3.895788965987060926e-01
2.066192079312027530e-01
2.066192079312027530e-01
3.133456929872464047e-01
6.574841550046930383e-01
1.045184447657259597e+00
8.491562097992203517e-01
3.089895099237344178e-01
9.771463134340317713e-02
-2.769171121186274065e-01
-1.119838534908196293e+00
-1.836430648855917669e+00
-1.936622859316693201e+00
-1.836430648855917669e+00
-1.498826461433738988e+00
-5.121509975482745336e-01
5.616481276074294371e-01
1.951270524867751988e+00
3.157933233460571643e+00
3.273372084643638935e+00
2.308477536075734804e+00
1.169335664967350974e+00
-7.653269119707616086e-02
-1.407346617099987318e+00
-2.099979724198392628e+00
-1.779800269030261894e+00
-1.446552264671595145e+00
-1.252702118345311755e+00
-4.664110753813986432e-01
5.415280070828334957e-02
7.467859078066887424e-01
1.522186493111821637e+00
1.439419014905094052e+00
6.727307957269850203e-01
2.327563063122746745e-01
-3.079276903020033290e-02
-9.063855647961089890e-01
-1.677429967037730174e+00
-2.060774076626784801e+00
-1.912663852467377357e+00
-1.779800269030261894e+00
-1.383387610250671251e+00
-2.551361968010674719e-01
1.456843747159142000e+00
2.493615316274993887e+00
2.493615316274993887e+00
2.299765169948710941e+00
1.596241605191525359e+00
9.253894134106800395e-01
4.810587409324577624e-01
3.786884389399261530e-01
3.177018760507583917e-01
2.676057708203705143e-01
2.284001232487626876e-01
-1.723687185943398037e-01
-4.010683294287188949e-01
-7.321382422556296232e-01
-8.432209103751852064e-01
-9.042074732643530233e-01
-1.082810978868344431e+00
-1.091523344995368294e+00
-1.178647006265608033e+00
-1.518429285219542901e+00
-1.825540191197137618e+00
-1.544566383600614712e+00
-1.326757230425015477e+00
-1.050139605892004502e+00
-1.017468232915664572e+00
-1.322401047361503545e+00
-1.108948077249416242e+00
-1.159044182479804119e+00
-1.000043500661616624e+00
-2.856294782456513248e-01
2.066192079312027530e-01
8.295533860134164383e-01
1.574460689873965480e+00
2.493615316274993887e+00
3.273372084643638935e+00
3.807004509923856972e+00
3.706812299463081217e+00
2.874781334332292548e+00
2.450053485639874129e+00
1.774845110795516767e+00
9.907321593633597878e-01
4.570997340831418621e-01
-2.477579117372439178e-03
-4.097806955557428688e-01
-9.499473954312288582e-01
-1.677429967037730174e+00
-2.073842625817320595e+00
-2.387487806390183653e+00
-2.979928703027813430e+00
-3.520095402903299142e+00
-3.019134350599421257e+00
-1.936622859316693201e+00
-7.321382422556296232e-01
1.032115898466723580e+00
2.661328364220205245e+00
4.229554267084519203e+00
4.292718921505443319e+00
3.007644917769408011e+00
1.491693211667237895e+00
3.569075236223662184e-01
-6.929325946840217965e-01
-1.779800269030261894e+00
-1.877814387959281461e+00
-1.747128896053921965e+00
-1.544566383600614712e+00
-1.074098612741320347e+00
3.672806845423541577e-02
7.141145348303489238e-01
6.814431618540089941e-01
6.204565989648411772e-01
3.454997692247942231e-02
-3.509722241983310731e-01
-7.996590797400654482e-01
-1.015290141383908606e+00
-1.252702118345311755e+00
-1.237455477623019773e+00
-6.929325946840217965e-01
-5.034386314212505598e-01
-1.157383387686840154e-01
1.194955466609630979e-01
2.458248555028106075e-01
1.957287502724228134e-01
-2.812732951821393379e-01
-7.321382422556296232e-01
-6.842202285569978226e-01
-4.881919906989585778e-01
-3.662188649206230551e-01
-7.653269119707616086e-02
2.131534825264707333e-01
6.313470566236212278e-01
6.988678941080569418e-01
6.226346904965972540e-01
4.723463748054337885e-01
3.002771437967104440e-01
2.567153131615905748e-01
1.325640958514990309e-01
1.238517297244750709e-01
4.056695477895536431e-03
-7.653269119707616086e-02
-3.079276903020033290e-02
6.234787009651528156e-03
-1.309849794909759557e-01
-1.331630710227319492e-01
-1.309849794909759557e-01
-1.593001694038038429e-01
-1.462316202132679099e-01
-5.475177587951624014e-02
-1.336803677615239737e-02
-9.613551498288008812e-02
-2.050400915706796778e-01
-5.992746588185141610e-01
-6.798640454934858912e-01
-4.097806955557428688e-01
-2.529581052693115062e-01
1.369202789150110178e-01
3.307704252412942969e-01
4.026474457892420533e-01
4.636340086784098147e-01
4.570997340831418621e-01
5.202643885040656446e-01
4.614559171466538490e-01
3.743322558764141661e-01
2.066192079312027530e-01
1.712524466843148505e-02
-2.477579117372439178e-03
1.129612720656951175e-01
7.811180755759924987e-02
3.890615998599140229e-02
-2.420676476105315389e-01
-6.929325946840217965e-01
-4.990824483577385173e-01
-4.250273362780347952e-01
-6.341241233266100563e-01
-5.208633636752985074e-01
-3.514895209371231288e-02
4.854149239959697493e-01
7.729230061877606639e-01
1.117061468205207131e+00
1.162801390372083077e+00
1.117061468205207131e+00
9.428141456647279872e-01
6.313470566236212278e-01
4.178940865115339798e-01
2.196877571217387137e-01
1.107831805339391240e-01
1.276906160491950333e-02
1.930333620018747851e-02
-3.079276903020033290e-02
-1.396973456179999296e-01
-2.202867322929716321e-01
-2.943418443726752987e-01
-3.640407733888670339e-01
-3.967121463652069080e-01
-2.986980274361872856e-01
-2.224648238247276255e-01
-2.006839085071676909e-01
-1.810810847213637775e-01
-2.769171121186274065e-01
-4.947262652942265304e-01
-3.553284072618430600e-01
-1.070259726416600554e-01
-6.564223353829619356e-02
7.811180755759924987e-02
2.763181369473944882e-01
4.636340086784098147e-01
4.462092764243618670e-01
3.394827913683182707e-01
2.980990522649544228e-01
2.850305030744185175e-01
2.828524115426624963e-01
1.499888281055469785e-01
2.583761079545545541e-02
-6.782032507005218702e-02
-6.128605047478421358e-02
-8.306696579234414124e-02
-8.960124038761212162e-02
-7.653269119707616086e-02
-3.079276903020033290e-02
3.672806845423541577e-02
-5.475177587951624014e-02
-1.309849794909759557e-01
-1.353411625544879426e-01
-1.222726133639519958e-01
-8.306696579234414124e-02
-7.217650813356418782e-02
-7.653269119707616086e-02
-1.135602472369280219e-01
-1.004916980463920750e-01
-8.524505732410013470e-02
-8.524505732410013470e-02
-4.386131822073627978e-02
-3.514895209371231288e-02
1.712524466843148505e-02
-4.655670649128430469e-03
-5.910795894302822706e-02
4.056695477895536431e-03
-4.821750128424826670e-02
-3.514895209371231288e-02
-1.118994524439640564e-02
-4.655670649128430469e-03
6.939944143057528991e-02
1.151393635974511109e-01
8.464608215286723025e-02
-9.011853712640413919e-03
-1.004916980463920750e-01
-1.266287964274639688e-01
-5.475177587951624014e-02
-3.297086056195632636e-02
4.056695477895536431e-03
4.761852611301536919e-02
-2.994875856164473443e-04
-3.514895209371231288e-02
-5.257368434776024668e-02
-3.950513515722429980e-02
-2.994875856164473443e-04
-4.655670649128430469e-03
1.913725672089108265e-01
1.761259264866188723e-01
3.454997692247942231e-02
1.325640958514990309e-01
2.066192079312027530e-01
1.478107365737909851e-01
3.237188539072342885e-02
-4.821750128424826670e-02
-7.653269119707616086e-02
-3.297086056195632636e-02
-5.039559281600426016e-02
-3.297086056195632636e-02
-1.135602472369280219e-01
-3.313694004125271597e-01
-6.341241233266100563e-01
-5.382880959293463441e-01
-3.095884850949672806e-01
-2.093962746341916648e-01
1.107831805339391240e-01
3.177018760507583917e-01
5.028396562500176969e-01
6.683746126634730889e-01
6.945117110445448994e-01
6.052099582425493063e-01
4.178940865115339798e-01
2.850305030744185175e-01
1.979068418041788069e-01
-1.336803677615239737e-02
-1.113821557051720285e-01
-1.222726133639519958e-01
-2.355333730152635585e-01
-2.289990984199955781e-01
-2.072181831024356713e-01
-1.309849794909759557e-01
-1.505878032767798969e-01
-1.266287964274639688e-01
-1.070259726416600554e-01
-1.157383387686840154e-01
-7.871078272883215432e-02
-1.179164303004400088e-01
-6.999841660180819436e-02
-6.128605047478421358e-02
-7.653269119707616086e-02
0.000000000000000000e+00
0.000000000000000000e+00
0.000000000000000000e+00
0.000000000000000000e+00
0.000000000000000000e+00
0.000000000000000000e+00
0.000000000000000000e+00
0.000000000000000000e+00
0.000000000000000000e+00
0.000000000000000000e+00
0.000000000000000000e+00
0.000000000000000000e+00
0.000000000000000000e+00
0.000000000000000000e+00
0.000000000000000000e+00
0.000000000000000000e+00
0.000000000000000000e+00
0.000000000000000000e+00
0.000000000000000000e+00
0.000000000000000000e+00
0.000000000000000000e+00
0.000000000000000000e+00
0.000000000000000000e+00
0.000000000000000000e+00
0.000000000000000000e+00
0.000000000000000000e+00
0.000000000000000000e+00
0.000000000000000000e+00
0.000000000000000000e+00
0.000000000000000000e+00
0.000000000000000000e+00
-8.149057204623573192e-01
-8.889608325420610413e-01
-4.990824483577385173e-01
-4.097806955557428688e-01
3.672806845423541577e-02
7.642106400607366901e-01
9.645950609822879773e-01
1.315267797595002452e+00
1.395857184269974072e+00
1.456843747159142000e+00
1.598419696723281325e+00
1.522186493111821637e+00
1.049540630720771528e+00
3.569075236223662184e-01
-1.680125355308278168e-01
-6.929325946840217965e-01
-1.407346617099987318e+00
-1.805937367411333705e+00
-1.627333861807342297e+00
-1.677429967037730174e+00
-1.505360736029006885e+00
-5.426442789928583865e-01
4.222502695750459667e-01
1.350117262103098348e+00
1.818406941430636525e+00
1.774845110795516767e+00
1.733461371692152975e+00
1.382788635079438277e+00
9.776636101728238826e-01
4.244283611068019879e-01
-5.404661874611024208e-01
-1.779800269030261894e+00
-2.306898419715211812e+00
-2.487680016850958964e+00
-2.585694135779978975e+00
-1.605552946489782418e+00
-1.658344439990718233e-01
1.739995646287420872e+00
3.059919114531552076e+00
3.157933233460571643e+00
2.855178510546488635e+00
1.864146863597512471e+00
8.164848368228805331e-01
-3.514895209371231288e-02
-7.953028966765534058e-01
-1.307154406639211564e+00
-1.320222955829747580e+00
-1.344181962679063425e+00
-1.490114095306714903e+00
-1.352894328806087509e+00
-8.758922833515251360e-01
-4.860138991672026121e-01
-1.396973456179999296e-01
3.046333268602224309e-01
4.331407272338259618e-01
3.111676014554903835e-01
-1.876153593166317579e-01
-5.687813773739303080e-01
-1.346360054210819390e+00
-3.189025490076388358e+00
-3.202094039266924597e+00
-1.411702800163499250e+00
7.811180755759924987e-02
1.315267797595002452e+00
1.857612589002244352e+00
2.164723494979839291e+00
2.299765169948710941e+00
2.325902268329782530e+00
2.142942579662279190e+00
1.674652900334741013e+00
1.533076950770601687e+00
1.082212003697111458e+00
4.418530933608498801e-01
-1.200945218321960023e-01
-3.640407733888670339e-01
-6.384803063901219877e-01
-7.800562559542614238e-01
-7.778781644225054581e-01
-1.047961514360248536e+00
-6.406583979218779534e-01
-1.897934508483877514e-01
2.153315740582267268e-01
3.198799675825143574e-01
9.771463134340317713e-02
-3.514895209371231288e-02
-2.616704713963354800e-01
-3.074103935632112594e-01
-8.758922833515251360e-01
-2.097801632666636440e+00
-3.189025490076388358e+00
-3.378519453339159817e+00
-3.121504652591952755e+00
-2.838352753463673661e+00
-1.836430648855917669e+00
-4.054245124922308818e-01
9.079646811566320919e-01
2.450053485639874129e+00
4.009567022377164669e+00
4.710912495602594063e+00
4.392911131966219074e+00
3.726415123248885131e+00
2.920521256499168494e+00
2.101558840558915620e+00
1.345761079039586416e+00
3.634417982176342266e-01
-3.444379496030631205e-01
-9.847968599393247535e-01
-1.185181280860876152e+00
-1.074098612741320347e+00
-1.673073783974218243e+00
-2.398378264048963260e+00
-3.058339998171029084e+00
-3.465643114609399333e+00
-3.016956259067665069e+00
-2.300364145119943693e+00
-1.836430648855917669e+00
-8.432209103751852064e-01
7.838134638465406034e-01
2.386888831218950457e+00
3.384454752763194740e+00
4.151142971941303550e+00
4.488747159363483341e+00
4.373308308180415160e+00
3.127439952015987679e+00
1.049540630720771528e+00
-3.248351258172592071e-01
-1.252702118345311755e+00
-1.477045546116178887e+00
-1.633868136402610416e+00
-1.810293550474845636e+00
-1.725347980736362086e+00
-1.673073783974218243e+00
-1.261414484472335840e+00
-8.432209103751852064e-01
-7.016449608110457703e-01
-6.711516793664619174e-01
-5.470004620563703179e-01
-5.491785535881263947e-01
-4.380958854685707560e-01
-4.184930616827668426e-01
-3.596845903253550469e-01
-2.594923798645794588e-01
-1.462316202132679099e-01
-2.643658596668834945e-02
1.712524466843148505e-02
4.979661764477136265e-02
-1.680125355308278168e-01
-1.789029931896077841e-01
-1.200945218321960023e-01
-2.398895560787755454e-01
-1.963277254436557040e-01
-1.244507048957079892e-01
-1.919715423801437171e-01
-7.653269119707616086e-02
-9.011853712640413919e-03
1.608792857643269458e-01
2.066192079312027530e-01
1.325640958514990309e-01
1.238517297244750709e-01
-6.128605047478421358e-02
3.019379385896743886e-02
9.118035674813519675e-02
2.801570232721144540e-02
3.890615998599140229e-02
1.878603946139544489e-03
1.059097007316351161e-02
-1.004916980463920750e-01
-8.524505732410013470e-02
-9.011853712640413919e-03
-3.732704362546830634e-02
1.059097007316351161e-02
-9.011853712640413919e-03
2.148142773194347196e-02
4.761852611301536919e-02
6.504325836706330299e-02
9.118035674813519675e-02
1.325640958514990309e-01
-9.395742345112409466e-02
-8.432209103751852064e-01
-1.017468232915664572e+00
-5.774937435009542819e-01
-6.602612217076819778e-01
-4.620548923178866563e-01
2.153315740582267268e-01
6.052099582425493063e-01
8.731152166485363075e-01
8.796494912438042046e-01
9.384579626012160558e-01
1.204185129475446869e+00
1.234678410920030833e+00
1.049540630720771528e+00
9.079646811566320919e-01
7.729230061877606639e-01
5.747166767979654534e-01
2.872085946061744832e-01
1.695916518913508919e-01
2.763181369473944882e-01
3.307704252412942969e-01
2.066192079312027530e-01
-2.477579117372439178e-03
-1.135602472369280219e-01
-2.769171121186274065e-01
-5.099729060165184569e-01
-5.862061096279782557e-01
-4.598768007861306906e-01
-3.487941326665751074e-01
-2.398895560787755454e-01
-2.289990984199955781e-01
-2.137524576977036517e-01
-7.435459966532018128e-02
1.930333620018747851e-02
8.900226521637920329e-02
6.286516683530730953e-02
-6.833762180884422194e-03
4.326234304950338921e-02
2.365951926369946196e-02
-9.613551498288008812e-02
-1.026697895781480685e-01
-5.910795894302822706e-02
-6.782032507005218702e-02
-1.658344439990718233e-01
-2.137524576977036517e-01
-1.157383387686840154e-01
-4.821750128424826670e-02
-4.168322668898029326e-02
-5.257368434776024668e-02
4.056695477895536431e-03
1.151393635974511109e-01
2.458248555028106075e-01
3.307704252412942969e-01
1.891944756771548330e-01
5.197470917652735611e-02
-1.396973456179999296e-01
-2.377114645470195520e-01
-1.266287964274639688e-01
-1.810810847213637775e-01
-1.614782609355598364e-01
-7.435459966532018128e-02
5.850898377179532955e-02
2.458248555028106075e-01
3.002771437967104440e-01
2.392905809075426271e-01
1.913725672089108265e-01
2.719619538838825012e-01
1.804821095501308592e-01
9.553653981164718367e-02
1.238517297244750709e-01
1.129612720656951175e-01
5.850898377179532955e-02
5.197470917652735611e-02
1.494715313667549506e-02
-8.088887426058814778e-02
-8.524505732410013470e-02
-1.418754371497559230e-01
-2.006839085071676909e-01
-2.159305492294596451e-01
-2.072181831024356713e-01
-1.179164303004400088e-01
-9.831360651463608158e-02
-8.742314885585612816e-02
-8.306696579234414124e-02
-8.960124038761212162e-02
-4.386131822073627978e-02
-6.564223353829619356e-02
-1.200945218321960023e-01
-1.244507048957079892e-01
-1.723687185943398037e-01
-2.072181831024356713e-01
-1.527658948085358903e-01
-3.732704362546830634e-02
6.286516683530730953e-02
4.326234304950338921e-02
9.553653981164718367e-02
1.151393635974511109e-01
1.587011942325709524e-01
1.260298212562310782e-01
3.454997692247942231e-02
8.246799062111123679e-02
1.276906160491950333e-02
-1.118994524439640564e-02
-8.306696579234414124e-02
-1.614782609355598364e-01
-1.505878032767798969e-01
-1.505878032767798969e-01
-7.871078272883215432e-02
1.930333620018747851e-02
1.194955466609630979e-01
1.390983704467670112e-01
5.415280070828334957e-02
-6.833762180884422194e-03
7.375562449408726295e-02
6.068707530355132301e-02
-6.833762180884422194e-03
-4.386131822073627978e-02
-8.742314885585612816e-02
-3.079276903020033290e-02
-5.910795894302822706e-02
0.000000000000000000e+00
0.000000000000000000e+00
0.000000000000000000e+00
0.000000000000000000e+00
0.000000000000000000e+00
0.000000000000000000e+00
0.000000000000000000e+00
0.000000000000000000e+00
0.000000000000000000e+00
0.000000000000000000e+00
0.000000000000000000e+00
0.000000000000000000e+00
0.000000000000000000e+00
0.000000000000000000e+00
0.000000000000000000e+00
0.000000000000000000e+00
0.000000000000000000e+00
0.000000000000000000e+00
0.000000000000000000e+00
0.000000000000000000e+00
0.000000000000000000e+00
0.000000000000000000e+00
0.000000000000000000e+00
0.000000000000000000e+00
0.000000000000000000e+00
0.000000000000000000e+00
0.000000000000000000e+00
0.000000000000000000e+00
0.000000000000000000e+00
0.000000000000000000e+00
0.000000000000000000e+00
0.000000000000000000e+00
0.000000000000000000e+00
0.000000000000000000e+00
0.000000000000000000e+00
0.000000000000000000e+00
0.000000000000000000e+00
0.000000000000000000e+00
0.000000000000000000e+00
0.000000000000000000e+00
0.000000000000000000e+00
0.000000000000000000e+00
0.000000000000000000e+00
0.000000000000000000e+00
0.000000000000000000e+00
0.000000000000000000e+00
0.000000000000000000e+00
0.000000000000000000e+00
0.000000000000000000e+00
0.000000000000000000e+00
0.000000000000000000e+00
0.000000000000000000e+00
0.000000000000000000e+00
0.000000000000000000e+00
0.000000000000000000e+00
0.000000000000000000e+00
0.000000000000000000e+00
0.000000000000000000e+00
0.000000000000000000e+00
0.000000000000000000e+00
0.000000000000000000e+00
0.000000000000000000e+00
0.000000000000000000e+00
0.000000000000000000e+00
0.000000000000000000e+00
0.000000000000000000e+00
0.000000000000000000e+00
0.000000000000000000e+00
0.000000000000000000e+00
-8.976731986690850151e-01
-9.347007547089368762e-01
-6.776859539617298145e-01
-6.036308418820260924e-01
-9.177933191936811508e-02
4.570997340831418621e-01
1.108349102078183490e+00
1.824941216025904644e+00
1.877215412788048265e+00
1.624556795104353357e+00
1.249925051642322815e+00
9.645950609822879773e-01
6.182785074330852115e-01
3.939350796622180795e-01
8.900226521637920329e-02
-3.749312310476470289e-01
-7.560972491049455790e-01
-9.586597615582528320e-01
-1.087167161931856363e+00
-1.215674562305459894e+00
-7.321382422556296232e-01
-3.792874141111590158e-01
-2.507800137375554850e-01
-2.333552814835075651e-01
-7.321382422556296232e-01
-1.091523344995368294e+00
-1.024002507510932469e+00
-9.455912123677168157e-01
-6.755078624299738488e-01
-2.986980274361872856e-01
1.282079127879870717e-01
7.467859078066887424e-01
7.337173586161528371e-01
1.347421873832550243e-01
5.415280070828334957e-02
2.850305030744185175e-01
2.915647776696864701e-01
2.327563063122746745e-01
4.374969102973378932e-01
1.145376658118035129e+00
1.382788635079438277e+00
9.428141456647279872e-01
4.287845441703139748e-01
4.636340086784098147e-01
4.592778256148978278e-01
2.066192079312027530e-01
5.850898377179532955e-02
-3.030542104996992725e-01
-2.507800137375554850e-01
-5.910795894302822706e-02
1.020708144069151641e-01
5.115520223770416708e-01
6.313470566236212278e-01
1.276906160491950333e-02
-5.600690112469063342e-01
-7.822343474860175006e-01
-9.238102970501569366e-01
-8.758922833515251360e-01
-1.411702800163499250e+00
-1.592484397299246623e+00
-1.524963559814810798e+00
-1.962759957697765012e+00
-1.535854017473590627e+00
-7.560972491049455790e-01
-1.004916980463920750e-01
5.877852259885013586e-01
1.252103143174078781e+00
1.881571595851560419e+00
1.997010447034627934e+00
1.633269161231377220e+00
1.123595742800475250e+00
6.923336195127889336e-01
6.400594227506452016e-01
5.877852259885013586e-01
1.695916518913508919e-01
-3.291913088807711940e-01
-5.077948144847624912e-01
-3.553284072618430600e-01
1.086050890021831306e-01
4.222502695750459667e-01
-8.960124038761212162e-02
-9.956873175981046931e-01
-1.978006598420056994e+00
-2.300364145119943693e+00
-1.978006598420056994e+00
-2.032458886713957025e+00
-1.483579820711447006e+00
-8.432209103751852064e-01
-1.200945218321960023e-01
9.907321593633597878e-01
2.020969453883943778e+00
2.783301489998541101e+00
3.157933233460571643e+00
3.157933233460571643e+00
2.493615316274993887e+00
1.692077632588788960e+00
8.752933081802922732e-01
4.326234304950338921e-02
-5.470004620563703179e-01
-6.929325946840217965e-01
-8.257961781211372587e-01
-1.261414484472335840e+00
-1.243989752218287892e+00
-1.156866090948048154e+00
-1.204784104646680065e+00
-1.050139605892004502e+00
-6.842202285569978226e-01
-1.484097117450239034e-01
2.109753909947147399e-01
4.326234304950338921e-02
-1.963277254436557040e-01
-1.745468101260957972e-01
1.913725672089108265e-01
6.727307957269850203e-01
8.992523150296081180e-01
8.622247589897562570e-01
2.588934046933465405e-01
8.464608215286723025e-02
1.712524466843148505e-02
-1.505878032767798969e-01
-2.660266544598474669e-01
-4.184930616827668426e-01
-1.396973456179999296e-01
-1.527658948085358903e-01
-7.653269119707616086e-02
-1.026697895781480685e-01
-1.941496339118997105e-01
-1.985058169754116975e-01
-2.682047459916034327e-01
-3.226570342855031859e-01
-4.010683294287188949e-01
-3.204789427537472202e-01
-3.400817665395511336e-01
-3.596845903253550469e-01
-3.270132173490151728e-01
-2.507800137375554850e-01
-2.769171121186274065e-01
-1.941496339118997105e-01
-1.353411625544879426e-01
-2.921637528409193330e-01
-2.224648238247276255e-01
-2.355333730152635585e-01
-9.177933191936811508e-02
-1.554612830790838909e-02
1.059097007316351161e-02
1.957287502724228134e-01
1.870163841453988396e-01
1.347421873832550243e-01
3.454997692247942231e-02
-2.994875856164473443e-04
3.672806845423541577e-02
1.107831805339391240e-01
1.761259264866188723e-01
2.458248555028106075e-01
3.895788965987060926e-01
2.763181369473944882e-01
1.739478349548628788e-01
9.335844827989119021e-02
-2.425849443493235599e-02
-5.910795894302822706e-02
6.504325836706330299e-02
8.464608215286723025e-02
-6.564223353829619356e-02
-1.462316202132679099e-01
-3.183008512219911990e-01
-3.226570342855031859e-01
-2.856294782456513248e-01
-1.309849794909759557e-01
-7.217650813356418782e-02
-3.514895209371231288e-02
1.478107365737909851e-01
1.521669196373029720e-01
1.979068418041788069e-01
-8.742314885585612816e-02
-5.992746588185141610e-01
-6.537269471124139697e-01
-3.618626818571110682e-01
-1.396973456179999296e-01
2.567153131615905748e-01
4.810587409324577624e-01
5.376891207581135923e-01
6.814431618540089941e-01
6.052099582425493063e-01
5.267986630993335417e-01
3.743322558764141661e-01
-4.603940975249227324e-02
-1.108948077249416242e+00
-1.694854699291778122e+00
-9.455912123677168157e-01
-3.988902378969629292e-01
1.717697434231068854e-01
8.600466674580002913e-01
1.254281234705834747e+00
1.722570914033372924e+00
1.687721449525277029e+00
1.402391458865242191e+00
9.711293355775558744e-01
7.642106400607366901e-01
5.616481276074294371e-01
2.131534825264707333e-01
-2.477579117372439178e-03
-3.466160411348190862e-01
-4.380958854685707560e-01
-5.317538213340784470e-01
-4.664110753813986432e-01
-4.424520685320827429e-01
-7.016449608110457703e-01
-1.004399683725128556e+00
-1.145975633289268103e+00
-1.087167161931856363e+00
-7.778781644225054581e-01
-3.291913088807711940e-01
-1.222726133639519958e-01
3.133456929872464047e-01
6.052099582425493063e-01
7.642106400607366901e-01
9.079646811566320919e-01
9.079646811566320919e-01
8.339095690769283697e-01
6.204565989648411772e-01
4.527435510196298751e-01
1.543450111690589655e-01
3.890615998599140229e-02
-9.395742345112409466e-02
-1.658344439990718233e-01
-4.773015330401786382e-01
-8.040152628035773796e-01
-5.731375604374422394e-01
-3.836435971746709472e-01
-2.246429153564836190e-01
-6.128605047478421358e-02
8.900226521637920329e-02
2.131534825264707333e-01
2.436467639710546140e-01
2.588934046933465405e-01
2.371124893757866336e-01
9.553653981164718367e-02
3.454997692247942231e-02
-2.643658596668834945e-02
-1.789029931896077841e-01
-1.832591762531197710e-01
-2.268210068882395847e-01
-3.052323020314552937e-01
-2.398895560787755454e-01
-1.723687185943398037e-01
-2.028620000389236844e-01
-8.524505732410013470e-02
-6.564223353829619356e-02
-5.257368434776024668e-02
1.059097007316351161e-02
4.544043458125938267e-02
1.456326450420349916e-01
1.303860043197430374e-01
1.347421873832550243e-01
7.157753296233126949e-02
1.151393635974511109e-01
8.464608215286723025e-02
-4.655670649128430469e-03
-3.079276903020033290e-02
-8.524505732410013470e-02
-1.309849794909759557e-01
-1.244507048957079892e-01
-6.128605047478421358e-02
-8.524505732410013470e-02
-1.336803677615239737e-02
-1.772421983966438255e-02
-4.821750128424826670e-02
-1.440535286815119165e-01
-2.137524576977036517e-01
-1.854372677848757645e-01
-2.159305492294596451e-01
-2.072181831024356713e-01
-8.524505732410013470e-02
4.979661764477136265e-02
1.086050890021831306e-01
1.260298212562310782e-01
-2.994875856164473443e-04
3.019379385896743886e-02
3.237188539072342885e-02
4.544043458125938267e-02
6.504325836706330299e-02
-4.603940975249227324e-02
-1.118994524439640564e-02
5.197470917652735611e-02
1.499888281055469785e-01
6.068707530355132301e-02
2.801570232721144540e-02
3.890615998599140229e-02
2.365951926369946196e-02
-2.425849443493235599e-02
-8.088887426058814778e-02
4.761852611301536919e-02
3.454997692247942231e-02
-2.208040290317636600e-02
7.375562449408726295e-02
2.305782147805186810e-01
2.763181369473944882e-01
2.545372216298345536e-01
2.131534825264707333e-01
1.303860043197430374e-01
4.979661764477136265e-02
-3.732704362546830634e-02
-5.039559281600426016e-02
-1.118994524439640564e-02
-2.425849443493235599e-02
-3.950513515722429980e-02
-1.336803677615239737e-02
-1.118994524439640564e-02
-5.475177587951624014e-02
-1.157383387686840154e-01
-9.831360651463608158e-02
-7.217650813356418782e-02
-4.821750128424826670e-02
-7.653269119707616086e-02
-1.113821557051720285e-01
-8.960124038761212162e-02
-9.395742345112409466e-02
-6.128605047478421358e-02
-3.950513515722429980e-02
0.000000000000000000e+00
0.000000000000000000e+00
0.000000000000000000e+00
0.000000000000000000e+00
0.000000000000000000e+00
0.000000000000000000e+00
0.000000000000000000e+00
0.000000000000000000e+00
0.000000000000000000e+00
0.000000000000000000e+00
0.000000000000000000e+00
0.000000000000000000e+00
0.000000000000000000e+00
0.000000000000000000e+00
0.000000000000000000e+00
0.000000000000000000e+00
0.000000000000000000e+00
0.000000000000000000e+00
0.000000000000000000e+00
-5.143290890800304993e-01
-2.208040290317636600e-02
5.311548461628455842e-01
6.182785074330852115e-01
8.731152166485363075e-01
6.814431618540089941e-01
3.672806845423541577e-02
-5.475177587951624014e-02
8.900226521637920329e-02
1.521669196373029720e-01
2.392905809075426271e-01
-2.769171121186274065e-01
-5.905622926914901871e-01
-4.598768007861306906e-01
-1.353411625544879426e-01
4.418530933608498801e-01
8.360876606086844465e-01
9.406360541329720215e-01
9.166770472836560657e-01
1.164979481903839043e+00
1.171513756499106940e+00
1.173691848030862905e+00
1.162801390372083077e+00
8.992523150296081180e-01
6.182785074330852115e-01
2.109753909947147399e-01
-1.288068879592199623e-01
-4.424520685320827429e-01
-6.471926725171459616e-01
-8.214399950576253273e-01
-1.091523344995368294e+00
-1.951869500038985183e+00
-2.590050318843490906e+00
-2.696776803899534336e+00
-2.685886346240754285e+00
-1.592484397299246623e+00
-8.715361002880130936e-01
-6.782032507005218702e-02
1.145376658118035129e+00
1.997010447034627934e+00
2.441341119512850266e+00
2.164723494979839291e+00
1.474268479413189947e+00
6.400594227506452016e-01
5.376891207581135923e-01
3.982912627257300664e-01
-8.524505732410013470e-02
-4.598768007861306906e-01
-6.058089334137821691e-01
-1.990231137142037254e-02
7.729230061877606639e-01
1.032115898466723580e+00
1.171513756499106940e+00
8.861837658390722128e-01
1.587011942325709524e-01
-1.658344439990718233e-01
-8.061933543353333453e-01
-1.535854017473590627e+00
-2.102157815730148815e+00
-1.923554310126157185e+00
-1.348538145742575356e+00
-9.129198393913769971e-01
-1.985058169754116975e-01
3.220580591142703786e-01
7.642106400607366901e-01
9.537046033235079268e-01
1.350117262103098348e+00
1.546145499961137704e+00
1.402391458865242191e+00
1.208541312538958801e+00
8.622247589897562570e-01
4.157159949797780141e-01
-2.943418443726752987e-01
-7.844124390177734663e-01
-7.844124390177734663e-01
-4.751234415084226170e-01
-5.905622926914901871e-01
-5.600690112469063342e-01
-3.226570342855031859e-01
-8.742314885585612816e-02
3.808665304716821187e-01
4.353188187655819275e-01
3.089895099237344178e-01
3.220580591142703786e-01
4.108425151774739575e-02
-2.682047459916034327e-01
-2.181086407612156386e-01
-2.093962746341916648e-01
-4.272054278097908164e-01
-5.426442789928583865e-01
-8.889608325420610413e-01
-1.163400365543316051e+00
-1.143797541757512137e+00
-1.435661807012815094e+00
-1.642580502529634279e+00
-2.019390337523420786e+00
-2.084733083476100646e+00
-1.553278749727638575e+00
-9.717283107487887372e-01
4.004693542574860321e-01
1.624556795104353357e+00
2.245312881654811132e+00
2.519752414656065920e+00
2.920521256499168494e+00
2.955370721007264390e+00
2.591629435204013454e+00
2.116805481281207602e+00
1.398035275801730259e+00
6.988678941080569418e-01
-1.554612830790838909e-02
-4.468082515955947298e-01
-8.214399950576253273e-01
-7.517410660414335366e-01
-2.899856613091633117e-01
3.672806845423541577e-02
1.608792857643269458e-01
1.804821095501308592e-01
1.151393635974511109e-01
-1.353411625544879426e-01
-9.216322055184009709e-01
-2.217596666913216108e+00
-2.529063755954322978e+00
-2.398378264048963260e+00
-2.171856744746340162e+00
-1.344181962679063425e+00
-2.507800137375554850e-01
9.907321593633597878e-01
2.060175101455551605e+00
2.724493018641129360e+00
2.661328364220205245e+00
2.201751051019690930e+00
1.596241605191525359e+00
7.467859078066887424e-01
1.878603946139544489e-03
-6.232336656678301168e-01
-1.050139605892004502e+00
-1.204784104646680065e+00
-9.063855647961089890e-01
-5.927403842232461528e-01
-5.404661874611024208e-01
-5.034386314212505598e-01
-4.315616108733028033e-01
-3.923559633016949211e-01
-4.010683294287188949e-01
-3.139446681584792120e-01
-3.923559633016949211e-01
-5.426442789928583865e-01
-9.063855647961089890e-01
-1.230921203027751876e+00
-7.539191575731896133e-01
-2.660266544598474669e-01
2.784962284791505094e-01
8.709371251167802308e-01
1.082212003697111458e+00
1.138842383522767232e+00
7.838134638465406034e-01
6.226346904965972540e-01
3.569075236223662184e-01
3.237188539072342885e-02
-1.179164303004400088e-01
-1.810810847213637775e-01
-2.529581052693115062e-01
-3.400817665395511336e-01
-2.943418443726752987e-01
-2.464238306740435258e-01
-3.662188649206230551e-01
-4.010683294287188949e-01
-3.923559633016949211e-01
-8.715361002880130936e-01
-1.087167161931856363e+00
-7.822343474860175006e-01
-4.664110753813986432e-01
1.804821095501308592e-01
6.727307957269850203e-01
8.840056743073162471e-01
1.049540630720771528e+00
9.123208642201441343e-01
6.226346904965972540e-01
2.349343978440306679e-01
1.282079127879870717e-01
1.107831805339391240e-01
-8.960124038761212162e-02
-1.440535286815119165e-01
-5.910795894302822706e-02
-1.222726133639519958e-01
-2.006839085071676909e-01
-1.897934508483877514e-01
-2.573142883328234931e-01
-2.115743661659476582e-01
-1.614782609355598364e-01
-1.505878032767798969e-01
-9.613551498288008812e-02
-9.177933191936811508e-02
-6.128605047478421358e-02
-5.475177587951624014e-02
-7.435459966532018128e-02
1.878603946139544489e-03
-2.994875856164473443e-04
-5.039559281600426016e-02
2.583761079545545541e-02
-2.477579117372439178e-03
1.712524466843148505e-02
5.415280070828334957e-02
8.246799062111123679e-02
5.850898377179532955e-02
3.454997692247942231e-02
7.375562449408726295e-02
1.020708144069151641e-01
1.042489059386711436e-01
9.771463134340317713e-02
7.375562449408726295e-02
1.494715313667549506e-02
1.042489059386711436e-01
2.066192079312027530e-01
1.042489059386711436e-01
5.633089224003933609e-02
7.375562449408726295e-02
1.347421873832550243e-01
1.499888281055469785e-01
1.521669196373029720e-01
2.109753909947147399e-01
2.436467639710546140e-01
2.828524115426624963e-01
2.349343978440306679e-01
1.804821095501308592e-01
9.553653981164718367e-02
2.365951926369946196e-02
4.056695477895536431e-03
-4.168322668898029326e-02
-1.200945218321960023e-01
-6.999841660180819436e-02
-1.135602472369280219e-01
-3.596845903253550469e-01
-3.705750479841350420e-01
-3.749312310476470289e-01
-4.184930616827668426e-01
-3.727531395158910077e-01
-1.810810847213637775e-01
-5.475177587951624014e-02
2.284001232487626876e-01
5.159082054405536022e-01
4.723463748054337885e-01
5.485795784168935318e-01
4.505654594878738539e-01
2.567153131615905748e-01
8.028989908935524333e-02
-1.179164303004400088e-01
-3.662188649206230551e-01
-6.275898487313420482e-01
-4.446301600638387641e-01
-2.289990984199955781e-01
-2.425849443493235599e-02
1.194955466609630979e-01
-1.179164303004400088e-01
-5.056167229530065255e-01
-2.986980274361872856e-01
1.020708144069151641e-01
3.373046998365623050e-01
6.945117110445448994e-01
6.400594227506452016e-01
6.596622465364491150e-01
6.052099582425493063e-01
2.327563063122746745e-01
-9.011853712640413919e-03
8.028989908935524333e-02
2.719619538838825012e-01
3.895788965987060926e-01
2.458248555028106075e-01
1.064269974704271371e-01
2.583761079545545541e-02
-1.658344439990718233e-01
-2.093962746341916648e-01
-2.660266544598474669e-01
-1.658344439990718233e-01
-2.486019222057995193e-01
-3.531503157300870943e-01
-2.921637528409193330e-01
-2.355333730152635585e-01
-1.963277254436557040e-01
-2.093962746341916648e-01
-1.396973456179999296e-01
-8.742314885585612816e-02
-1.772421983966438255e-02
2.365951926369946196e-02
9.335844827989119021e-02
3.237188539072342885e-02
-3.514895209371231288e-02
-3.514895209371231288e-02
-9.395742345112409466e-02
-5.039559281600426016e-02
-9.395742345112409466e-02
-1.527658948085358903e-01
-2.268210068882395847e-01
-2.573142883328234931e-01
-1.876153593166317579e-01
-1.789029931896077841e-01
-1.505878032767798969e-01
-1.222726133639519958e-01
-5.257368434776024668e-02
-1.070259726416600554e-01
-7.435459966532018128e-02
3.890615998599140229e-02
2.801570232721144540e-02
7.157753296233126949e-02
8.464608215286723025e-02
4.326234304950338921e-02
7.811180755759924987e-02
1.935506587406668200e-01
2.131534825264707333e-01
2.066192079312027530e-01
2.523591300980785879e-01
2.284001232487626876e-01
1.216736381927190774e-01
1.194955466609630979e-01
1.630573772960829393e-01
1.478107365737909851e-01
1.390983704467670112e-01
9.989272287515917059e-02
9.118035674813519675e-02
-2.477579117372439178e-03
-1.004916980463920750e-01
-1.353411625544879426e-01
-1.396973456179999296e-01
-6.128605047478421358e-02
-4.655670649128430469e-03
4.544043458125938267e-02
4.326234304950338921e-02
1.712524466843148505e-02
-1.772421983966438255e-02
-7.217650813356418782e-02
-4.821750128424826670e-02
2.148142773194347196e-02
8.682417368462320983e-02
6.939944143057528991e-02
5.633089224003933609e-02
1.107831805339391240e-01
8.028989908935524333e-02
-6.564223353829619356e-02
-1.854372677848757645e-01
-2.507800137375554850e-01
-2.812732951821393379e-01
-2.965199359044313199e-01
-3.291913088807711940e-01
-2.551361968010674719e-01
-1.353411625544879426e-01
-1.919715423801437171e-01
-3.422598580713071548e-01
-5.731375604374422394e-01
-8.345085442481612326e-01
-1.483579820711447006e+00
-1.063208155082540296e+00
1.059097007316351161e-02
3.895788965987060926e-01
1.029937806934967615e+00
1.119239559736963319e+00
1.097458644419403440e+00
8.469781182674643860e-01
-4.386131822073627978e-02
-5.470004620563703179e-01
-7.691657982954814843e-01
-6.580831301759259011e-01
2.148142773194347196e-02
5.028396562500176969e-01
1.097458644419403440e+00
1.624556795104353357e+00
1.482980845540213810e+00
1.315267797595002452e+00
1.143198566586279163e+00
6.400594227506452016e-01
2.828524115426624963e-01
1.064269974704271371e-01
-4.489863431273507510e-01
-6.798640454934858912e-01
-4.664110753813986432e-01
-3.204789427537472202e-01
-5.208633636752985074e-01
-1.115482351844684361e+00
-1.346360054210819390e+00
-1.270126850599359702e+00
-1.352894328806087509e+00
-1.827718282728893584e+00
-1.753663170649189862e+00
-4.184930616827668426e-01
9.820197932363358140e-01
1.679009083398253166e+00
1.968695257121799935e+00
2.164723494979839291e+00
1.633269161231377220e+00
9.428141456647279872e-01
3.699760728129021792e-01
-3.950513515722429980e-02
-4.168322668898029326e-02
1.739478349548628788e-01
5.790728598614773848e-01
6.052099582425493063e-01
6.683746126634730889e-01
4.810587409324577624e-01
1.761259264866188723e-01
2.365951926369946196e-02
-3.618626818571110682e-01
-7.844124390177734663e-01
-1.252702118345311755e+00
-1.043605331296736383e+00
-7.016449608110457703e-01
-5.252195467388104388e-01
-1.680125355308278168e-01
3.454997692247942231e-02
1.717697434231068854e-01
4.113598119162660272e-01
6.400594227506452016e-01
6.008537751790372639e-01
1.783040180183748658e-01
-3.379036750077951679e-01
-7.757000728907494924e-01
-1.024002507510932469e+00
-6.929325946840217965e-01
-5.731375604374422394e-01
-5.470004620563703179e-01
-3.270132173490151728e-01
-2.812732951821393379e-01
-2.208040290317636600e-02
1.478107365737909851e-01
1.238517297244750709e-01
2.327563063122746745e-01
3.046333268602224309e-01
5.812509513932333505e-01
5.790728598614773848e-01
1.674135603595948985e-01
-1.113821557051720285e-01
-4.773015330401786382e-01
-6.471926725171459616e-01
-9.673721276852768058e-01
-1.620799587212074400e+00
-1.633868136402610416e+00
-1.252702118345311755e+00
-9.673721276852768058e-01
-2.202867322929716321e-01
3.765103474081701318e-01
6.313470566236212278e-01
9.907321593633597878e-01
1.256459326237590712e+00
1.350117262103098348e+00
1.058252996847795613e+00
7.642106400607366901e-01
5.790728598614773848e-01
5.790728598614773848e-01
9.558826948552640035e-01
1.173691848030862905e+00
1.158445207308571145e+00
1.197650854880178972e+00
1.010334983149163701e+00
1.783040180183748658e-01
-6.580831301759259011e-01
-1.320222955829747580e+00
-2.243733765294288141e+00
-3.032202899789957051e+00
-3.698698908507290550e+00
-4.400044381732719501e+00
-3.831562491944406013e+00
-2.346104067286819639e+00
-1.320222955829747580e+00
4.636340086784098147e-01
2.493615316274993887e+00
3.859278706686001037e+00
4.837241804444441406e+00
5.427504609550314996e+00
5.405723694232755783e+00
4.373308308180415160e+00
3.149220867333547336e+00
2.060175101455551605e+00
1.173691848030862905e+00
5.137301139087976365e-01
-4.598768007861306906e-01
-1.145975633289268103e+00
-1.592484397299246623e+00
-1.836430648855917669e+00
-1.836430648855917669e+00
-1.686142333164754259e+00
-1.206962196178436031e+00
-9.717283107487887372e-01
-6.842202285569978226e-01
-4.707672584449106301e-01
-3.618626818571110682e-01
-2.594923798645794588e-01
-3.357255834760391466e-01
-4.054245124922308818e-01
-4.511644346591067167e-01
-5.992746588185141610e-01
-8.083714458670894221e-01
-6.667954963029498749e-01
-5.992746588185141610e-01
-6.275898487313420482e-01
-5.862061096279782557e-01
-5.426442789928583865e-01
-4.511644346591067167e-01
-4.598768007861306906e-01
-3.379036750077951679e-01
-1.963277254436557040e-01
-4.821750128424826670e-02
6.504325836706330299e-02
8.246799062111123679e-02
6.234787009651528156e-03
-8.742314885585612816e-02
-1.897934508483877514e-01
-1.701906270625838102e-01
-1.876153593166317579e-01
-3.444379496030631205e-01
-2.573142883328234931e-01
-2.355333730152635585e-01
-1.701906270625838102e-01
-1.854372677848757645e-01
-3.052323020314552937e-01
-2.573142883328234931e-01
-2.594923798645794588e-01
-1.200945218321960023e-01
1.412764619785230047e-01
3.569075236223662184e-01
5.529357614804054633e-01
6.313470566236212278e-01
6.030318667107933406e-01
5.768947683297214191e-01
3.699760728129021792e-01
2.980990522649544228e-01
3.068114183919783966e-01
1.216736381927190774e-01
7.811180755759924987e-02
3.672806845423541577e-02
-1.118994524439640564e-02
-6.128605047478421358e-02
-9.831360651463608158e-02
-7.435459966532018128e-02
-2.994875856164473443e-04
8.464608215286723025e-02
4.326234304950338921e-02
3.454997692247942231e-02
1.390983704467670112e-01
1.761259264866188723e-01
7.811180755759924987e-02
6.234787009651528156e-03
-8.742314885585612816e-02
-1.200945218321960023e-01
-5.165071806117864650e-01
-1.176468914733852067e+00
-1.102413802654148345e+00
-9.129198393913769971e-01
-5.273976382705664046e-01
3.237188539072342885e-02
2.545372216298345536e-01
7.990601045688325854e-01
9.645950609822879773e-01
9.733074271093118401e-01
8.709371251167802308e-01
6.727307957269850203e-01
6.683746126634730889e-01
4.810587409324577624e-01
6.400594227506452016e-01
7.097583517668368813e-01
4.636340086784098147e-01
3.351266083048062838e-01
1.194955466609630979e-01
-7.653269119707616086e-02
-2.856294782456513248e-01
-4.097806955557428688e-01
-2.420676476105315389e-01
-1.810810847213637775e-01
-1.658344439990718233e-01
-2.028620000389236844e-01
-2.398895560787755454e-01
-1.941496339118997105e-01
-2.159305492294596451e-01
-2.268210068882395847e-01
-4.489863431273507510e-01
-4.141368786192548557e-01
-1.854372677848757645e-01
-1.919715423801437171e-01
-1.832591762531197710e-01
-1.484097117450239034e-01
-7.435459966532018128e-02
-1.990231137142037254e-02
-2.769171121186274065e-01
-8.214399950576253273e-01
-5.513566451198823604e-01
-4.821750128424826670e-02
1.303860043197430374e-01
6.574841550046930383e-01
8.752933081802922732e-01
9.754855186410679169e-01
7.990601045688325854e-01
5.137301139087976365e-01
4.113598119162660272e-01
2.327563063122746745e-01
1.739478349548628788e-01
-1.244507048957079892e-01
-2.769171121186274065e-01
-5.252195467388104388e-01
-8.606456426292331541e-01
-7.800562559542614238e-01
-3.618626818571110682e-01
-1.336803677615239737e-02
4.157159949797780141e-01
6.683746126634730889e-01
6.945117110445448994e-01
5.921414090520132900e-01
3.198799675825143574e-01
2.066192079312027530e-01
6.068707530355132301e-02
1.194955466609630979e-01
1.369202789150110178e-01
3.890615998599140229e-02
-2.425849443493235599e-02
-3.732704362546830634e-02
3.890615998599140229e-02
2.801570232721144540e-02
3.890615998599140229e-02
-3.079276903020033290e-02
-1.113821557051720285e-01
-1.222726133639519958e-01
-2.115743661659476582e-01
-2.464238306740435258e-01
-1.985058169754116975e-01
-1.658344439990718233e-01
-1.919715423801437171e-01
-2.072181831024356713e-01
-1.854372677848757645e-01
-1.680125355308278168e-01
-1.505878032767798969e-01
-1.135602472369280219e-01
-1.004916980463920750e-01
-1.222726133639519958e-01
-7.871078272883215432e-02
-7.653269119707616086e-02
-5.475177587951624014e-02
-1.070259726416600554e-01
-4.821750128424826670e-02
-6.346414200654021398e-02
-9.831360651463608158e-02
-1.990231137142037254e-02
-3.079276903020033290e-02
1.059097007316351161e-02
-3.514895209371231288e-02
-5.692986741127223360e-02
-2.477579117372439178e-03
-6.128605047478421358e-02
-2.333552814835075651e-01
-9.177933191936811508e-02
6.504325836706330299e-02
1.020708144069151641e-01
8.682417368462320983e-02
8.682417368462320983e-02
2.414686724392986206e-01
2.066192079312027530e-01
1.478107365737909851e-01
1.107831805339391240e-01
1.369202789150110178e-01
1.695916518913508919e-01
1.238517297244750709e-01
9.989272287515917059e-02
4.761852611301536919e-02
1.494715313667549506e-02
4.056695477895536431e-03
7.157753296233126949e-02
3.454997692247942231e-02
-3.732704362546830634e-02
-2.425849443493235599e-02
-2.425849443493235599e-02
-4.386131822073627978e-02
-4.168322668898029326e-02
-6.999841660180819436e-02
-5.692986741127223360e-02
-1.554612830790838909e-02
-4.168322668898029326e-02
-2.425849443493235599e-02
-4.168322668898029326e-02
-2.994875856164473443e-04
4.108425151774739575e-02
-3.732704362546830634e-02
1.494715313667549506e-02
1.930333620018747851e-02
-3.297086056195632636e-02
-1.309849794909759557e-01
-1.113821557051720285e-01
-4.821750128424826670e-02
-4.168322668898029326e-02
-4.821750128424826670e-02
-7.871078272883215432e-02
-6.999841660180819436e-02
1.878603946139544489e-03
3.454997692247942231e-02
-1.118994524439640564e-02
6.939944143057528991e-02
7.375562449408726295e-02
3.890615998599140229e-02
-3.732704362546830634e-02
-6.782032507005218702e-02
-5.039559281600426016e-02
0.000000000000000000e+00
0.000000000000000000e+00
0.000000000000000000e+00
0.000000000000000000e+00
0.000000000000000000e+00
0.000000000000000000e+00
0.000000000000000000e+00
0.000000000000000000e+00
0.000000000000000000e+00
0.000000000000000000e+00
0.000000000000000000e+00
0.000000000000000000e+00
0.000000000000000000e+00
0.000000000000000000e+00
0.000000000000000000e+00
0.000000000000000000e+00
0.000000000000000000e+00
0.000000000000000000e+00
0.000000000000000000e+00
0.000000000000000000e+00
0.000000000000000000e+00
0.000000000000000000e+00
0.000000000000000000e+00
0.000000000000000000e+00
-5.039559281600426016e-02
8.535123928627323941e-01
1.289130699213930642e+00
1.838009765216440439e+00
1.864146863597512471e+00
1.739995646287420872e+00
1.589707330596257462e+00
1.308733522999734555e+00
7.838134638465406034e-01
-7.435459966532018128e-02
-1.037071056701468486e+00
-1.400812342504719199e+00
-9.325226631771809105e-01
-9.717283107487887372e-01
-6.406583979218779534e-01
1.878603946139544489e-03
4.745244663371897542e-01
1.119239559736963319e+00
1.084390095228867423e+00
9.711293355775558744e-01
8.360876606086844465e-01
5.464014868851374551e-01
1.129612720656951175e-01
-5.208633636752985074e-01
-8.345085442481612326e-01
-1.089345253463612329e+00
-1.583772031172222539e+00
-1.629511953339098485e+00
-1.368140969528379269e+00
-1.799403092816065808e+00
-1.686142333164754259e+00
-6.254117571995860825e-01
-1.092040641734160489e-01
9.820197932363358140e-01
2.201751051019690930e+00
2.493615316274993887e+00
2.776767215403272981e+00
2.874781334332292548e+00
2.519752414656065920e+00
1.624556795104353357e+00
6.226346904965972540e-01
-6.471926725171459616e-01
-1.457442722330374973e+00
-1.633868136402610416e+00
-1.836430648855917669e+00
-1.649114777124902398e+00
-2.398378264048963260e+00
-3.245655869902044355e+00
-2.812215655082602073e+00
-1.925732401657913373e+00
-1.034892965169712520e+00
6.939944143057528991e-02
1.171513756499106940e+00
2.201751051019690930e+00
2.853000419014732447e+00
2.892206066586340718e+00
3.059919114531552076e+00
2.839931869824196653e+00
2.308477536075734804e+00
1.345761079039586416e+00
2.676057708203705143e-01
-2.420676476105315389e-01
-7.865905305495294320e-01
-1.224386928432483979e+00
-1.490114095306714903e+00
-1.490114095306714903e+00
-1.217852653837215859e+00
-1.117660443376440327e+00
-1.102413802654148345e+00
-1.043605331296736383e+00
-1.063208155082540296e+00
-1.204784104646680065e+00
-1.381209518718915286e+00
-1.400812342504719199e+00
-1.224386928432483979e+00
-9.412350293042048843e-01
-6.580831301759259011e-01
-4.184930616827668426e-01
-3.640407733888670339e-01
-7.953028966765534058e-01
-1.211318379241947962e+00
-1.311510589702723495e+00
-1.000043500661616624e+00
-4.250273362780347952e-01
5.159082054405536022e-01
1.173691848030862905e+00
9.428141456647279872e-01
8.055943791641004825e-01
4.854149239959697493e-01
6.313470566236212278e-01
9.253894134106800395e-01
1.249925051642322815e+00
2.201751051019690930e+00
3.203673155627447144e+00
4.085800225988624135e+00
3.769976953884005333e+00
3.136152318143011541e+00
2.432628753385826403e+00
1.864146863597512471e+00
1.308733522999734555e+00
8.164848368228805331e-01
1.216736381927190774e-01
-7.909467136130414744e-01
-1.065386246614296484e+00
-1.483579820711447006e+00
-1.627333861807342297e+00
-1.832074465792405515e+00
-1.936622859316693201e+00
-1.978006598420056994e+00
-2.165322470151072487e+00
-2.102157815730148815e+00
-1.978006598420056994e+00
-1.629511953339098485e+00
-1.180825097797363998e+00
-4.729453499766666513e-01
3.699760728129021792e-01
7.642106400607366901e-01
9.123208642201441343e-01
7.380735416796647685e-01
3.220580591142703786e-01
1.935506587406668200e-01
2.801570232721144540e-02
-1.571220778720478495e-01
-1.266287964274639688e-01
-1.309849794909759557e-01
-1.375192540862439361e-01
-1.614782609355598364e-01
-1.658344439990718233e-01
-3.079276903020033290e-02
1.260298212562310782e-01
2.458248555028106075e-01
1.783040180183748658e-01
-2.994875856164473443e-04
-1.113821557051720285e-01
-2.856294782456513248e-01
-4.794796245719346039e-01
-5.470004620563703179e-01
-4.773015330401786382e-01
-3.749312310476470289e-01
-2.986980274361872856e-01
-1.505878032767798969e-01
4.056695477895536431e-03
1.913725672089108265e-01
1.129612720656951175e-01
1.494715313667549506e-02
-1.336803677615239737e-02
-7.871078272883215432e-02
-1.571220778720478495e-01
-1.745468101260957972e-01
-3.079276903020033290e-02
-1.118994524439640564e-02
-9.395742345112409466e-02
-9.011853712640413919e-03
2.284001232487626876e-01
3.895788965987060926e-01
4.462092764243618670e-01
3.394827913683182707e-01
1.870163841453988396e-01
4.979661764477136265e-02
-2.477579117372439178e-03
4.056695477895536431e-03
-5.039559281600426016e-02
1.059097007316351161e-02
7.157753296233126949e-02
1.086050890021831306e-01
1.325640958514990309e-01
1.390983704467670112e-01
1.957287502724228134e-01
2.044411163994467595e-01
1.587011942325709524e-01
5.850898377179532955e-02
-9.613551498288008812e-02
-5.491785535881263947e-01
-1.320222955829747580e+00
-1.156866090948048154e+00
-3.814655056429149815e-01
6.504325836706330299e-02
6.400594227506452016e-01
8.360876606086844465e-01
8.055943791641004825e-01
3.438389744318302577e-01
-4.010683294287188949e-01
-3.792874141111590158e-01
-2.289990984199955781e-01
9.553653981164718367e-02
4.636340086784098147e-01
6.226346904965972540e-01
7.467859078066887424e-01
7.162926263621048895e-01
5.877852259885013586e-01
4.026474457892420533e-01
2.719619538838825012e-01
1.325640958514990309e-01
-6.128605047478421358e-02
-3.226570342855031859e-01
-4.620548923178866563e-01
-4.446301600638387641e-01
-3.444379496030631205e-01
-3.226570342855031859e-01
-3.183008512219911990e-01
-2.769171121186274065e-01
-1.636563524673158299e-01
-6.564223353829619356e-02
1.878603946139544489e-03
9.771463134340317713e-02
4.761852611301536919e-02
1.930333620018747851e-02
-4.168322668898029326e-02
-1.658344439990718233e-01
-1.745468101260957972e-01
-1.331630710227319492e-01
-5.910795894302822706e-02
8.412878541407519881e-03
4.108425151774739575e-02
4.326234304950338921e-02
1.276906160491950333e-02
8.412878541407519881e-03
5.415280070828334957e-02
5.633089224003933609e-02
-2.425849443493235599e-02
-1.004916980463920750e-01
-1.336803677615239737e-02
1.020708144069151641e-01
1.390983704467670112e-01
1.935506587406668200e-01
3.177018760507583917e-01
3.982912627257300664e-01
4.483873679561178882e-01
4.810587409324577624e-01
4.614559171466538490e-01
4.374969102973378932e-01
2.567153131615905748e-01
1.238517297244750709e-01
3.237188539072342885e-02
-1.092040641734160489e-01
-1.179164303004400088e-01
-1.353411625544879426e-01
-1.179164303004400088e-01
-1.179164303004400088e-01
-1.353411625544879426e-01
-7.217650813356418782e-02
-6.564223353829619356e-02
-1.118994524439640564e-02
-2.477579117372439178e-03
-9.177933191936811508e-02
-1.571220778720478495e-01
-2.181086407612156386e-01
-2.006839085071676909e-01
-9.177933191936811508e-02
-1.113821557051720285e-01
-1.331630710227319492e-01
-4.386131822073627978e-02
-9.177933191936811508e-02
-1.222726133639519958e-01
-1.222726133639519958e-01
-7.871078272883215432e-02
-6.564223353829619356e-02
-8.742314885585612816e-02
-3.950513515722429980e-02
5.415280070828334957e-02
1.712524466843148505e-02
-1.396973456179999296e-01
-2.594923798645794588e-01
-4.773015330401786382e-01
-3.792874141111590158e-01
-2.333552814835075651e-01
-1.244507048957079892e-01
1.238517297244750709e-01
1.979068418041788069e-01
3.699760728129021792e-01
4.984834731865057100e-01
5.311548461628455842e-01
5.376891207581135923e-01
3.830446220034381399e-01
2.632495877568585274e-01
1.804821095501308592e-01
9.553653981164718367e-02
-2.994875856164473443e-04
-6.564223353829619356e-02
-1.179164303004400088e-01
-1.092040641734160489e-01
-3.297086056195632636e-02
-2.994875856164473443e-04
-4.386131822073627978e-02
-3.514895209371231288e-02
-6.564223353829619356e-02
-3.514895209371231288e-02
3.454997692247942231e-02
-6.564223353829619356e-02
0.000000000000000000e+00
0.000000000000000000e+00
0.000000000000000000e+00
0.000000000000000000e+00
0.000000000000000000e+00
0.000000000000000000e+00
0.000000000000000000e+00
0.000000000000000000e+00
0.000000000000000000e+00
0.000000000000000000e+00
0.000000000000000000e+00
0.000000000000000000e+00
0.000000000000000000e+00
0.000000000000000000e+00
0.000000000000000000e+00
0.000000000000000000e+00
0.000000000000000000e+00
0.000000000000000000e+00
0.000000000000000000e+00
0.000000000000000000e+00
0.000000000000000000e+00
0.000000000000000000e+00
0.000000000000000000e+00
0.000000000000000000e+00
0.000000000000000000e+00
0.000000000000000000e+00
0.000000000000000000e+00
0.000000000000000000e+00
0.000000000000000000e+00
0.000000000000000000e+00
0.000000000000000000e+00
0.000000000000000000e+00
0.000000000000000000e+00
0.000000000000000000e+00
0.000000000000000000e+00
0.000000000000000000e+00
0.000000000000000000e+00
0.000000000000000000e+00
0.000000000000000000e+00
0.000000000000000000e+00
0.000000000000000000e+00
0.000000000000000000e+00
0.000000000000000000e+00
0.000000000000000000e+00
0.000000000000000000e+00
0.000000000000000000e+00
0.000000000000000000e+00
0.000000000000000000e+00
0.000000000000000000e+00
0.000000000000000000e+00
0.000000000000000000e+00
0.000000000000000000e+00
0.000000000000000000e+00
0.000000000000000000e+00
0.000000000000000000e+00
0.000000000000000000e+00
0.000000000000000000e+00
6.814431618540089941e-01
9.428141456647279872e-01
1.049540630720771528e+00
1.003800708553895804e+00
8.469781182674643860e-01
6.596622465364491150e-01
2.153315740582267268e-01
-7.016449608110457703e-01
-1.178647006265608033e+00
-6.929325946840217965e-01
-2.682047459916034327e-01
3.237188539072342885e-02
3.220580591142703786e-01
4.592778256148978278e-01
6.661965211317170121e-01
5.834290429249893162e-01
1.020708144069151641e-01
-4.751234415084226170e-01
-6.341241233266100563e-01
-7.648096152319695529e-01
-7.408506083826535971e-01
-5.470004620563703179e-01
-4.184930616827668426e-01
-1.118994524439640564e-02
3.177018760507583917e-01
5.616481276074294371e-01
7.838134638465406034e-01
9.036084980931201605e-01
8.491562097992203517e-01
8.752933081802922732e-01
9.907321593633597878e-01
8.883618573708281785e-01
4.483873679561178882e-01
-2.224648238247276255e-01
-7.168916015333377523e-01
-1.215674562305459894e+00
-1.978006598420056994e+00
-2.193637660063900263e+00
-2.158788195555804368e+00
-1.646936685593146210e+00
-4.097806955557428688e-01
2.153315740582267268e-01
5.398672122898695580e-01
7.838134638465406034e-01
1.149732841181547061e+00
1.439419014905094052e+00
1.256459326237590712e+00
1.058252996847795613e+00
8.709371251167802308e-01
1.141020475054523198e+00
1.456843747159142000e+00
8.600466674580002913e-01
3.569075236223662184e-01
-8.306696579234414124e-02
-2.921637528409193330e-01
-1.484097117450239034e-01
-4.054245124922308818e-01
-4.250273362780347952e-01
-5.687813773739303080e-01
-8.257961781211372587e-01
-1.411702800163499250e+00
-2.200171934659168382e+00
-2.300364145119943693e+00
-1.969294232293033131e+00
-1.230921203027751876e+00
-4.489863431273507510e-01
4.636340086784098147e-01
1.158445207308571145e+00
1.049540630720771528e+00
9.645950609822879773e-01
1.350117262103098348e+00
1.249925051642322815e+00
9.624169694505319006e-01
9.754855186410679169e-01
9.079646811566320919e-01
1.230322227856518902e+00
1.025581623871455683e+00
4.222502695750459667e-01
-7.217650813356418782e-02
-1.172112731670340136e+00
-2.058595985095028613e+00
-1.601196763426270486e+00
-8.933170156055730837e-01
-7.560972491049455790e-01
-7.822343474860175006e-01
-1.514073102156030748e+00
-1.895239120213329409e+00
-1.694854699291778122e+00
-1.890882937149817478e+00
-1.921376218594401220e+00
-1.535854017473590627e+00
-1.353411625544879426e-01
1.145376658118035129e+00
2.299765169948710941e+00
3.530386885390845997e+00
4.151142971941303550e+00
4.656460207308694699e+00
4.514884257744554930e+00
4.009567022377164669e+00
3.203673155627447144e+00
2.284518529226418959e+00
1.010334983149163701e+00
-2.268210068882395847e-01
-1.098057619590636191e+00
-1.524963559814810798e+00
-1.636046227934366382e+00
-2.224130941508484227e+00
-2.605296959565782888e+00
-2.448474369279351137e+00
-2.306898419715211812e+00
-2.102157815730148815e+00
-1.805937367411333705e+00
-1.398634250972963233e+00
-6.275898487313420482e-01
2.365951926369946196e-02
2.066192079312027530e-01
1.216736381927190774e-01
8.028989908935524333e-02
1.783040180183748658e-01
1.194955466609630979e-01
3.220580591142703786e-01
4.462092764243618670e-01
3.874008050669501269e-01
3.394827913683182707e-01
2.458248555028106075e-01
3.569075236223662184e-01
1.390983704467670112e-01
1.543450111690589655e-01
2.218658486534947072e-01
1.238517297244750709e-01
6.504325836706330299e-02
-2.268210068882395847e-01
-3.596845903253550469e-01
-4.881919906989585778e-01
-5.666032858421742313e-01
-5.600690112469063342e-01
-5.927403842232461528e-01
-5.840280180962221790e-01
-4.293835193415467821e-01
-2.137524576977036517e-01
-7.653269119707616086e-02
8.028989908935524333e-02
1.216736381927190774e-01
5.850898377179532955e-02
-6.128605047478421358e-02
-1.505878032767798969e-01
-2.202867322929716321e-01
-2.202867322929716321e-01
-1.680125355308278168e-01
-1.723687185943398037e-01
-1.527658948085358903e-01
-4.386131822073627978e-02
5.850898377179532955e-02
1.276906160491950333e-02
6.234787009651528156e-03
4.544043458125938267e-02
1.494715313667549506e-02
1.878603946139544489e-03
1.347421873832550243e-01
1.369202789150110178e-01
3.454997692247942231e-02
9.335844827989119021e-02
1.521669196373029720e-01
1.238517297244750709e-01
8.246799062111123679e-02
6.504325836706330299e-02
8.412878541407519881e-03
1.712524466843148505e-02
5.633089224003933609e-02
1.712524466843148505e-02
-3.950513515722429980e-02
-4.386131822073627978e-02
-2.994875856164473443e-04
4.326234304950338921e-02
7.593371602584325641e-02
-1.118994524439640564e-02
-1.527658948085358903e-01
-2.028620000389236844e-01
-2.333552814835075651e-01
-3.161227596902352333e-01
-3.640407733888670339e-01
-3.422598580713071548e-01
-1.593001694038038429e-01
1.325640958514990309e-01
3.220580591142703786e-01
3.111676014554903835e-01
-2.268210068882395847e-01
-6.145212995408061429e-01
-2.507800137375554850e-01
-5.910795894302822706e-02
2.850305030744185175e-01
7.184707178938608552e-01
8.883618573708281785e-01
1.032115898466723580e+00
9.166770472836560657e-01
7.467859078066887424e-01
6.727307957269850203e-01
5.115520223770416708e-01
-9.613551498288008812e-02
-6.341241233266100563e-01
-4.729453499766666513e-01
-2.181086407612156386e-01
-8.306696579234414124e-02
2.719619538838825012e-01
5.376891207581135923e-01
4.462092764243618670e-01
3.111676014554903835e-01
2.131534825264707333e-01
2.153315740582267268e-01
1.870163841453988396e-01
8.900226521637920329e-02
3.019379385896743886e-02
-2.643658596668834945e-02
-3.732704362546830634e-02
-1.004916980463920750e-01
-1.222726133639519958e-01
-6.782032507005218702e-02
-9.395742345112409466e-02
-7.217650813356418782e-02
-3.732704362546830634e-02
-6.128605047478421358e-02
-8.960124038761212162e-02
-9.395742345112409466e-02
-5.910795894302822706e-02
-1.118994524439640564e-02
3.672806845423541577e-02
1.086050890021831306e-01
1.674135603595948985e-01
2.719619538838825012e-01
2.066192079312027530e-01
6.504325836706330299e-02
-4.821750128424826670e-02
-2.072181831024356713e-01
-2.072181831024356713e-01
-1.767249016578517906e-01
-1.135602472369280219e-01
-6.999841660180819436e-02
-1.554612830790838909e-02
6.234787009651528156e-03
-9.613551498288008812e-02
-3.008761189679433068e-01
-5.862061096279782557e-01
-5.208633636752985074e-01
-4.272054278097908164e-01
-2.747390205868714408e-01
-6.999841660180819436e-02
6.504325836706330299e-02
3.177018760507583917e-01
4.549216425513858408e-01
4.113598119162660272e-01
3.939350796622180795e-01
4.745244663371897542e-01
2.763181369473944882e-01
1.151393635974511109e-01
1.151393635974511109e-01
-9.831360651463608158e-02
-2.594923798645794588e-01
-3.531503157300870943e-01
-3.204789427537472202e-01
-1.375192540862439361e-01
-7.435459966532018128e-02
-1.353411625544879426e-01
-1.200945218321960023e-01
-1.092040641734160489e-01
-8.088887426058814778e-02
5.197470917652735611e-02
3.019379385896743886e-02
8.246799062111123679e-02
1.674135603595948985e-01
1.347421873832550243e-01
1.194955466609630979e-01
7.811180755759924987e-02
-4.821750128424826670e-02
-7.435459966532018128e-02
-4.386131822073627978e-02
-5.475177587951624014e-02
-6.999841660180819436e-02
-8.306696579234414124e-02
-1.462316202132679099e-01
-1.484097117450239034e-01
-1.985058169754116975e-01
-2.202867322929716321e-01
-1.353411625544879426e-01
-1.985058169754116975e-01
-1.593001694038038429e-01
-7.435459966532018128e-02
3.672806845423541577e-02
9.989272287515917059e-02
1.303860043197430374e-01
1.107831805339391240e-01
8.682417368462320983e-02
1.303860043197430374e-01
1.478107365737909851e-01
1.194955466609630979e-01
1.712524466843148505e-02
7.375562449408726295e-02
1.064269974704271371e-01
6.504325836706330299e-02
1.930333620018747851e-02
7.157753296233126949e-02
1.325640958514990309e-01
3.237188539072342885e-02
-4.655670649128430469e-03
3.019379385896743886e-02
2.801570232721144540e-02
0.000000000000000000e+00
0.000000000000000000e+00
0.000000000000000000e+00
0.000000000000000000e+00
0.000000000000000000e+00
0.000000000000000000e+00
0.000000000000000000e+00
0.000000000000000000e+00
0.000000000000000000e+00
0.000000000000000000e+00
0.000000000000000000e+00
0.000000000000000000e+00
0.000000000000000000e+00
0.000000000000000000e+00
0.000000000000000000e+00
0.000000000000000000e+00
0.000000000000000000e+00
0.000000000000000000e+00
0.000000000000000000e+00
0.000000000000000000e+00
0.000000000000000000e+00
0.000000000000000000e+00
0.000000000000000000e+00
0.000000000000000000e+00
0.000000000000000000e+00
0.000000000000000000e+00
0.000000000000000000e+00
0.000000000000000000e+00
0.000000000000000000e+00
0.000000000000000000e+00
0.000000000000000000e+00
0.000000000000000000e+00
0.000000000000000000e+00
0.000000000000000000e+00
0.000000000000000000e+00
0.000000000000000000e+00
0.000000000000000000e+00
0.000000000000000000e+00
0.000000000000000000e+00
0.000000000000000000e+00
0.000000000000000000e+00
0.000000000000000000e+00
0.000000000000000000e+00
0.000000000000000000e+00
0.000000000000000000e+00
0.000000000000000000e+00
0.000000000000000000e+00
0.000000000000000000e+00
0.000000000000000000e+00
0.000000000000000000e+00
0.000000000000000000e+00
0.000000000000000000e+00
0.000000000000000000e+00
0.000000000000000000e+00
0.000000000000000000e+00
0.000000000000000000e+00
0.000000000000000000e+00
0.000000000000000000e+00
0.000000000000000000e+00
0.000000000000000000e+00
0.000000000000000000e+00
0.000000000000000000e+00
0.000000000000000000e+00
0.000000000000000000e+00
0.000000000000000000e+00
0.000000000000000000e+00
0.000000000000000000e+00
0.000000000000000000e+00
-7.653269119707616086e-02
2.148142773194347196e-02
-3.444379496030631205e-01
-9.608378530900087977e-01
-8.345085442481612326e-01
-2.425849443493235599e-02
5.790728598614773848e-01
1.025581623871455683e+00
4.200721780432900010e-01
-9.177933191936811508e-02
-2.551361968010674719e-01
-9.847968599393247535e-01
-1.224386928432483979e+00
-1.061030063550784330e+00
-4.184930616827668426e-01
1.424172374182802070e+00
2.715780652514105054e+00
2.776767215403272981e+00
2.979329727856580234e+00
3.038138199213991975e+00
2.633013174307377469e+00
2.020969453883943778e+00
1.456843747159142000e+00
9.079646811566320919e-01
4.026474457892420533e-01
-3.422598580713071548e-01
-1.411702800163499250e+00
-1.978006598420056994e+00
-2.333035518096283845e+00
-2.777366190574506177e+00
-2.764297641383969939e+00
-2.174034836278096350e+00
-1.463976996925643093e+00
-4.576987092543746694e-01
6.814431618540089941e-01
1.119239559736963319e+00
1.456843747159142000e+00
1.241212685515298730e+00
6.596622465364491150e-01
2.153315740582267268e-01
-5.257368434776024668e-02
-4.603940975249227324e-02
-5.034386314212505598e-01
-1.043605331296736383e+00
-1.509716919092518816e+00
-1.921376218594401220e+00
-2.060774076626784801e+00
-2.032458886713957025e+00
-2.319966968905747606e+00
-2.979928703027813430e+00
-2.794790922828553903e+00
-9.717283107487887372e-01
5.398672122898695580e-01
1.265171692364614575e+00
1.774845110795516767e+00
1.774845110795516767e+00
1.546145499961137704e+00
5.159082054405536022e-01
3.830446220034381399e-01
8.246799062111123679e-02
-1.440535286815119165e-01
1.717697434231068854e-01
-7.653269119707616086e-02
4.004693542574860321e-01
1.254281234705834747e+00
2.308477536075734804e+00
3.301687274556467155e+00
4.098868775179160373e+00
4.292718921505443319e+00
3.663250468827961459e+00
2.578560886013477660e+00
1.615844428977329272e+00
7.642106400607366901e-01
-2.246429153564836190e-01
-1.348538145742575356e+00
-2.367884982604379740e+00
-2.953791604646741398e+00
-2.820928021209625935e+00
-2.060774076626784801e+00
-1.949691408507229218e+00
-1.677429967037730174e+00
-7.822343474860175006e-01
8.464608215286723025e-02
6.313470566236212278e-01
9.384579626012160558e-01
7.228269009573727866e-01
-4.821750128424826670e-02
-4.010683294287188949e-01
-6.580831301759259011e-01
-7.321382422556296232e-01
-8.824265579467930332e-01
-9.281664801136688681e-01
-7.190696930650937180e-01
-5.731375604374422394e-01
-3.444379496030631205e-01
-2.551361968010674719e-01
-1.990231137142037254e-02
-1.941496339118997105e-01
-6.733297708982178831e-01
-9.325226631771809105e-01
-9.499473954312288582e-01
-8.149057204623573192e-01
-5.491785535881263947e-01
-1.440535286815119165e-01
-1.484097117450239034e-01
-3.030542104996992725e-01
1.216736381927190774e-01
1.804821095501308592e-01
1.151393635974511109e-01
3.569075236223662184e-01
6.683746126634730889e-01
1.208541312538958801e+00
1.482980845540213810e+00
1.456843747159142000e+00
1.045184447657259597e+00
4.897711070594817362e-01
2.567153131615905748e-01
-5.475177587951624014e-02
-3.727531395158910077e-01
-4.054245124922308818e-01
-4.664110753813986432e-01
-5.077948144847624912e-01
-6.798640454934858912e-01
-6.929325946840217965e-01
-4.359177939368147903e-01
-3.095884850949672806e-01
-1.963277254436557040e-01
-1.658344439990718233e-01
-7.653269119707616086e-02
2.365951926369946196e-02
2.392905809075426271e-01
4.222502695750459667e-01
4.113598119162660272e-01
4.200721780432900010e-01
3.220580591142703786e-01
1.151393635974511109e-01
1.494715313667549506e-02
-1.222726133639519958e-01
-1.832591762531197710e-01
-2.268210068882395847e-01
-2.769171121186274065e-01
-1.854372677848757645e-01
-9.177933191936811508e-02
-4.386131822073627978e-02
-1.462316202132679099e-01
-3.357255834760391466e-01
-3.662188649206230551e-01
-2.769171121186274065e-01
-2.289990984199955781e-01
-4.386131822073627978e-02
1.194955466609630979e-01
1.804821095501308592e-01
3.373046998365623050e-01
3.220580591142703786e-01
1.979068418041788069e-01
1.761259264866188723e-01
1.891944756771548330e-01
1.543450111690589655e-01
1.042489059386711436e-01
8.900226521637920329e-02
1.059097007316351161e-02
6.504325836706330299e-02
1.173174551292071044e-01
1.979068418041788069e-01
3.002771437967104440e-01
2.240439401852507006e-01
1.935506587406668200e-01
1.674135603595948985e-01
6.939944143057528991e-02
5.197470917652735611e-02
1.194955466609630979e-01
1.238517297244750709e-01
1.369202789150110178e-01
9.553653981164718367e-02
-7.871078272883215432e-02
-2.355333730152635585e-01
-2.398895560787755454e-01
-1.331630710227319492e-01
-4.603940975249227324e-02
3.019379385896743886e-02
-2.986980274361872856e-01
-9.673721276852768058e-01
-9.063855647961089890e-01
-2.878075697774073460e-01
-6.833762180884422194e-03
3.743322558764141661e-01
5.311548461628455842e-01
4.549216425513858408e-01
5.660043106709414795e-01
5.921414090520132900e-01
6.226346904965972540e-01
5.594700360756734714e-01
4.723463748054337885e-01
3.220580591142703786e-01
-7.217650813356418782e-02
-3.771093225794029946e-01
-3.662188649206230551e-01
-1.985058169754116975e-01
3.019379385896743886e-02
2.850305030744185175e-01
4.745244663371897542e-01
6.226346904965972540e-01
6.052099582425493063e-01
4.767025578689457754e-01
3.699760728129021792e-01
3.808665304716821187e-01
1.935506587406668200e-01
-1.222726133639519958e-01
-2.355333730152635585e-01
-3.313694004125271597e-01
-2.965199359044313199e-01
-2.921637528409193330e-01
-3.487941326665751074e-01
-3.858216887064269685e-01
-3.226570342855031859e-01
-2.442457391422875324e-01
-2.529581052693115062e-01
-1.919715423801437171e-01
-1.353411625544879426e-01
-1.571220778720478495e-01
-1.571220778720478495e-01
-1.745468101260957972e-01
-2.398895560787755454e-01
-1.941496339118997105e-01
-1.505878032767798969e-01
-1.244507048957079892e-01
-1.113821557051720285e-01
-1.462316202132679099e-01
-1.353411625544879426e-01
-1.745468101260957972e-01
-1.941496339118997105e-01
-1.309849794909759557e-01
-1.309849794909759557e-01
-4.821750128424826670e-02
1.064269974704271371e-01
9.118035674813519675e-02
9.553653981164718367e-02
1.804821095501308592e-01
2.937428692014424358e-01
3.024552353284664097e-01
2.109753909947147399e-01
2.588934046933465405e-01
2.458248555028106075e-01
1.587011942325709524e-01
1.412764619785230047e-01
7.375562449408726295e-02
-6.833762180884422194e-03
1.930333620018747851e-02
1.712524466843148505e-02
